Grain Radius of Reference Sphere (µm);Normalized Density Input (-);Normalized Density Output (-)
0.0;0.017949036995218968;0.09083334375299586
0.0021879375875175034;0.01836382859562988;0.0917900119931688
0.004375875175035007;0.01878682916119145;0.09275394194703648
0.00656381276255251;0.019218165505432202;0.09372515127816382
0.008751750350070014;0.01965796553628677;0.09470365718211873
0.010939687937587518;0.020106358244663038;0.09568947637987965
0.01312762552510502;0.020563473692387514;0.0966826251112547
0.015315563112622523;0.021029442999518783;0.0976831191283121
0.017503500700140028;0.021504398331022325;0.09869097368882547
0.019691438287657532;0.021988472882798007;0.09970620354973306
0.021879375875175036;0.022481800867053692;0.10072882296061424
0.024067313462692537;0.02298451749701579;0.10175884565718411
0.02625525105021004;0.023496758970971157;0.10279628485480626
0.028443188637727546;0.024018662455631935;0.10384115324202693
0.030631126225245046;0.0245503660688175;0.1048934629741326
0.032819063812762554;0.025092008861444807;0.10595322566672867
0.035007001400280055;0.025643730798823313;0.10702045238934554
0.037194938987797556;0.02620567274124587;0.1080951536590696
0.039382876575315064;0.02677797642387024;0.1091773394342037
0.041570814162832564;0.02736078443588585;0.11026701910795574
0.04375875175035007;0.02795424019895938;0.11136420150215899
0.04594668933786757;0.028558487944953744;0.11246889486102553
0.048134626925385074;0.029173672692916725;0.1135811068449314
0.05032256451290258;0.02979994022533199;0.11470084452424054
0.05251050210042008;0.030437437063630057;0.11582811437316207
0.05469843968793758;0.03108631044295358;0.11696292226364995
0.05688637727545509;0.031746708286173965;0.11810527345933829
0.05907431486297259;0.03241877917715399;0.1192551726095232
0.06126225245049009;0.03310267233325487;0.12041262374318286
0.0634501900380076;0.033798537577082934;0.12157763026304501
0.06563812762552511;0.03450652530747452;0.12275019493970063
0.0678260652130426;0.03522678646971526;0.123930319905764
0.07001400280056011;0.03595947252499332;0.12511800665008285
0.07220194038807762;0.03670473541908248;0.1263132560119987
0.07438987797559511;0.03746272755025557;0.12751606817565975
0.07657781556311262;0.03823360173642671;0.12872644266438865
0.07876575315063013;0.03901751118152068;0.12994437833510342
0.08095369073814762;0.03981460944107005;0.131169873372797
0.08314162832566513;0.04062505038703979;0.13240292528507544
0.08532956591318264;0.041448988171879864;0.13364353089675468
0.08751750350070014;0.04228657719180614;0.13489168634452028
0.08970544108821764;0.04313797204931075;0.1361473870716496
0.09189337867573515;0.04400332751490545;0.13741062782279873
0.09408131626325265;0.044882798488096655;0.1386814026388558
0.09626925385077015;0.04577653995759659;0.13995970485186193
0.09845719143828766;0.04668470696077521;0.14124552708000143
0.10064512902580516;0.04760745454235033;0.14253886122266243
0.10283306661332266;0.04854493771232764;0.14383969845557146
0.10502100420084017;0.04949731140318802;0.14514802922599887
0.10720894178835767;0.05046473042632986;0.14646384324804348
0.10939687937587517;0.05144734942777128;0.14778712949799033
0.11158481696339267;0.052445322843117675;0.14911787620974984
0.11377275455091018;0.05345880485180081;0.1504560708703751
0.11596069213842768;0.05448794933059348;0.15180170021566142
0.11814862972594518;0.05553290980641155;0.15315475022582825
0.12033656731346269;0.05659383940840593;0.1545152061212862
0.12252450490098019;0.05767089081935591;0.1558830523584893
0.1247124424884977;0.0587642162263694;0.15725827262587427
0.1269003800760152;0.05987396727090126;0.15864084983988966
0.1290883176635327;0.061000294998098496;0.16003076614111508
0.13127625525105022;0.06214334980548109;0.16142800289047063
0.1334641928385677;0.0633032813909695;0.16283254066552125
0.1356521304260852;0.06448023870027175;0.16424435925687492
0.1378400680136027;0.0656743698736364;0.16566343766467634
0.14002800560112022;0.06688582219198999;0.1670897540951985
0.14221594318863773;0.06811474202246559;0.16852328595753358
0.14440388077615524;0.06936127476333746;0.16996400986038165
0.14659181836367274;0.07062556478837691;0.17141190160894407
0.14877975595119022;0.07190775539064109;0.17286693620191762
0.15096769353870773;0.07320798872570898;0.17432908782859202
0.15315563112622524;0.07452640575438232;0.17579832986605573
0.15534356871374275;0.0758631461848617;0.1772746348765061
0.15753150630126025;0.07721834841442185;0.1787579746046681
0.15971944388877776;0.07859214947059234;0.1802483199753237
0.16190738147629524;0.07998468495187083;0.18174564109094918
0.16409531906381275;0.08139608896797859;0.18324990722946752
0.16628325665133026;0.0828264940796811;0.18476108684211123
0.16847119423884777;0.08427603123818954;0.18627914755140107
0.17065913182636527;0.08574482972416374;0.1878040561492389
0.17284706941388278;0.08723301708633469;0.18933577859511874
0.1750350070014003;0.08874071907976862;0.19087428001445356
0.17722294458891777;0.0902680596037901;0.19241952469702436
0.17941088217643528;0.09181516063958887;0.19397147609554363
0.18159881976395278;0.09338214218752766;0.19553009682434697
0.1837867573514703;0.09496912220417789;0.19709534865820175
0.1859746949389878;0.09657621653909956;0.19866719253123932
0.1881626325265053;0.09820353887139385;0.20024558853601632
0.1903505701140228;0.09985120064604924;0.20183049592269453
0.1925385077015403;0.1015193110101031;0.20342187309835122
0.1947264452890578;0.10320797674864701;0.20501967762641654
0.1969143828765753;0.10491730222069659;0.2066238662262378
0.19910232046409282;0.10664738929495436;0.20823439477277353
0.20129025805161033;0.10839833728548767;0.20985121829641792
0.2034781956391278;0.11017024288734974;0.21147429098295387
0.20566613322664531;0.11196320011217055;0.2131035661736432
0.20785407081416282;0.11377730022374352;0.21473899636544136
0.21004200840168033;0.11561263167363059;0.21638053321135384
0.21222994598919784;0.11746928003682573;0.21802812752092
0.21441788357671535;0.11934732794748774;0.21968172926083646
0.21660582116423285;0.12124685503478598;0.22134128755571358
0.21879375875175033;0.12316793785887585;0.22300675068896733
0.22098169633926784;0.12511064984704243;0.22467806610385277
0.22316963392678535;0.12707506123003187;0.22635518040462935
0.22535757151430286;0.1290612389786094;0.22803803935786754
0.22754550910182036;0.13106924674036605;0.2297265878938941
0.22973344668933787;0.13309914477680923;0.23142077010837628
0.23192138427685535;0.13515098990076613;0.23312052926404558
0.23410932186437286;0.13722483541412714;0.23482580779256226
0.23629725945189037;0.13932073104596726;0.23653654729651982
0.23848519703940788;0.1414387228910668;0.23825268855159265
0.24067313462692538;0.14357885334887252;0.2399741715088238
0.2428610722144429;0.14574116106292845;0.24170093529705441
0.24504900980196037;0.14792568086079444;0.24343291822549648
0.24723694738947788;0.15013244369451034;0.24517005778644818
0.2494248849769954;0.15236147658161325;0.2469122906581519
0.2516128225645129;0.15461280254675178;0.2486595527077967
0.2538007601520304;0.1568864405639281;0.25041177899465994
0.2559886977395479;0.15918240549939947;0.25216890377339923
0.2581766353270654;0.16150070805527256;0.2539308604974831
0.2603645729145829;0.16384135471381828;0.2556975818227675
0.26255251050210043;0.16620434768254472;0.2574689996112142
0.26474044808961794;0.16858968484006348;0.2592450449347585
0.2669283856771354;0.1709973596827718;0.26102564807931344
0.2691163232646529;0.17342736127239022;0.2628107385489255
0.2713042608521704;0.17587967418438938;0.2646002450700683
0.2734921984396879;0.17835427845733376;0.26639409559608596
0.2756801360272054;0.18085114954317694;0.26819221731177334
0.27786807361472293;0.1833702582585417;0.2699945366381082
0.28005601120224044;0.18591157073701284;0.2718009792371192
0.28224394878975795;0.18847504838248536;0.2736114700169018
0.28443188637727546;0.19106064782358204;0.27542593313677827
0.28661982396479296;0.1936683208691912;0.2772442920125946
0.28880776155231047;0.19629801446514453;0.2790664693221653
0.290995699139828;0.19894967065206753;0.2808923870108602
0.2931836367273455;0.2016232265244404;0.28272196629732965
0.29537157431486294;0.2043186141908902;0.28455512767937347
0.29755951190238045;0.20703576073575441;0.28639179093994904
0.29974744948989795;0.20977458818194158;0.2882318751533255
0.30193538707741546;0.21253501345511466;0.290075298691367
0.30412332466493297;0.21531694834923906;0.2919219792299654
0.3063112622524505;0.2181202994935145;0.2937718337556091
0.308499199839968;0.22094496832071867;0.29562477857208547
0.3106871374274855;0.22379085103700228;0.2974807293073266
0.312875075015003;0.22665783859315064;0.29933960092038986
0.3150630126025205;0.22954581665735158;0.3012013077085702
0.317250950190038;0.2324546655894836;0.3030657633146575
0.3194388877775555;0.23538426041696506;0.3049328807343174
0.32162682536507303;0.2383344708121839;0.30680257232361346
0.3238147629525905;0.2413051610715278;0.3086747498066591
0.326002700540108;0.24429619009605671;0.3105493242834022
0.3281906381276255;0.24730741137382506;0.3124262062375378
0.330378575715143;0.2503386729638833;0.3143053055445584
0.3325665133026605;0.25338981748199496;0.31618653147992226
0.334754450890178;0.25646068208807166;0.31806979272736086
0.33694238847769553;0.25955109847536223;0.3199549973873039
0.33913032606521304;0.2626608928614138;0.3218420529854364
0.34131826365273055;0.26578988598082676;0.32373086648137744
0.34350620124024805;0.26893789307982324;0.32562134427748335
0.34569413882776556;0.2721047239126454;0.32751339222777104
0.34788207641528307;0.27529018273981504;0.3294069156469676
0.3500700140028006;0.2784940683282544;0.3313018193196734
0.35225795159031803;0.28171617395329995;0.33319800750964657
0.35444588917783554;0.2849562874026204;0.33509538396920735
0.35663382676535305;0.2882141909820569;0.3369938519487505
0.35882176435287055;0.29148966152339795;0.33889331420638164
0.36100970194038806;0.2947824703941036;0.3407936730176584
0.36319763952790557;0.29809238350899764;0.34269483018544705
0.3653855771154231;0.30141916134393115;0.34459668704989094
0.3675735147029406;0.3047625589514411;0.3464991444984804
0.3697614522904581;0.3081223259784013;0.34840210297623597
0.3719493898779756;0.3114982066856884;0.3503054624959974
0.3741373274654931;0.31488993996986325;0.3522091226488093
0.3763252650530106;0.31829725938688036;0.35411298261441615
0.37851320264052807;0.32171989317783145;0.35601694117185256
0.3807011402280456;0.3251575642967291;0.357920896710139
0.3828890778155631;0.32860999044033573;0.359824747239064
0.3850770154030806;0.3320768840800428;0.3617283904000719
0.3872649529905981;0.33555795249580506;0.3636317234772368
0.3894528905781156;0.33905289781213116;0.36553464340833347
0.3916408281656331;0.3425614170361268;0.36743704679599143
0.3938287657531506;0.34608320209760357;0.3693388299189452
0.39601670334066813;0.3496179398912366;0.3712398887433625
0.39820464092818564;0.35316531232079246;0.3731401189342625
0.40039257851570315;0.3567249963453875;0.37503941586701284
0.40258051610322065;0.3602966640278212;0.37693767463890654
0.40476845369073816;0.36387998258493387;0.37883479008082077
0.4069563912782556;0.3674746144400183;0.3807306567689483
0.4091443288657731;0.37108021727725404;0.3826251690366011
0.41133226645329063;0.3746964440981734;0.38451822098609406
0.41352020404080814;0.37832294328013794;0.3864097065006902
0.41570814162832564;0.3819593586368232;0.3882995192566173
0.41789607921584315;0.38560532948070153;0.3901875527351484
0.42008401680336066;0.38926049068750324;0.3920737002347516
0.42227195439087817;0.39292447276264353;0.3939578548832941
0.4244598919783957;0.39659690190962116;0.39583990965030785
0.4266478295659132;0.40027740010034124;0.39771975735931475
0.4288357671534307;0.4039655851473656;0.3995972907002038
0.4310237047409482;0.40766107077808006;0.4014724022416604
0.4332116423284657;0.4113634667107331;0.40334498444364925
0.43539957991598316;0.4150723787323667;0.40521492966994127
0.43758751750350067;0.4187874087785619;0.40708213020069023
0.4397754550910182;0.42250815501505645;0.4089464782450476
0.4419633926785357;0.426234211921117;0.4108078659538245
0.4441513302660532;0.4299651703747397;0.4126661854321871
0.4463392678535707;0.4337006177395648;0.41452132875239167
0.4485272054410882;0.4374401379535588;0.41637318796655326
0.4507151430286057;0.44118331161936597;0.41822165511944365
0.4529030806161232;0.44492971609637383;0.42006662226132185
0.45509101820364073;0.44867892559438777;0.4219079814607887
0.45727895579115824;0.45243051126894873;0.4237456248176664
0.45946689337867574;0.45618404131823803;0.42557944447590296
0.46165483096619325;0.4599390810815218;0.42740933263649233
0.4638427685537107;0.4636951931391369;0.42923518157041146
0.4660307061412282;0.4674519374139565;0.43105688363157807
0.4682186437287457;0.47120887127431316;0.4328743312698119
0.47040658131626323;0.4749655496383481;0.434687417043812
0.47259451890378074;0.4787215250797373;0.43649603363413864
0.47478245649129824;0.482476347934768;0.4383000738562035
0.47697039407881575;0.48622956641073395;0.44009943067325313
0.47915833166633326;0.4899807266955814;0.44189399720936473
0.48134626925385077;0.4937293730688153;0.44368366676243043
0.4835342068413683;0.4974750480135643;0.44546833281713766
0.4857221444288858;0.50121729232983;0.4472478890579459
0.4879100820164033;0.5049556452488109;0.4490222293820479
0.49009801960392074;0.5086896445483305;0.450791247912322
0.49228595719143825;0.512418826669245;0.45255483901026583
0.49447389477895576;0.5161427268328713;0.45431289728892105
0.49666183236647327;0.5198608791593221;0.4560653176257613
0.4988497699539908;0.523572816786739;0.4578119951755791
0.5010377075415083;0.5272780719913684;0.4595528253833235
0.5032256451290258;0.5309761763084377;0.46128770399693725
0.5054135827165432;0.5346666606537753;0.46301652708013413
0.5076015203040608;0.53834905544613;0.4647391910251706
0.5097894578915783;0.5420228907301574;0.4664555925655648
0.5119773954790958;0.5456876962999935;0.468165628788786
0.5141653330666133;0.5493430018234001;0.4698691971488983
0.5163532706541308;0.5529883369664004;0.4715661954791716
0.5185412082416483;0.5566232315183901;0.4732565220046342
0.5207291458291659;0.5602472155176352;0.474940075354591
0.5229170834166833;0.5638598193771289;0.47661675457508407
0.5251050210042009;0.5674605740107679;0.4782864591412989
0.5272929585917183;0.5710490109597512;0.4799490889699294
0.5294808961792359;0.574624662519206;0.4816045444314661
0.5316688337667533;0.5781870618649462;0.4832527263624453
0.5338567713542708;0.5817357431803324;0.48489353607761554
0.5360447089417884;0.585270241783168;0.4865268753820626
0.5382326465293058;0.5887900942525954;0.48815264658324775
0.5404205841168234;0.5922948385559199;0.48977075250298835
0.5426085217043408;0.5957840141753246;0.4913810964893671
0.5447964592918584;0.5992571622344068;0.4929835824285607
0.5469843968793758;0.602713825624508;0.49457811475660085
0.5491723344668934;0.6061535491307519;0.4961645984710528
0.5513602720544108;0.6095758795577592;0.49774293914261236
0.5535482096419284;0.6129803658549886;0.4993130429266285
0.5557361472294459;0.6163665592416313;0.5008748165745303
0.5579240848169634;0.6197340133310225;0.5024281674451708
0.5601120224044809;0.6230822842545102;0.5039730035160891
0.5622999599919983;0.626410930784733;0.5055092333946704
0.5644878975795159;0.6297195144582504;0.5070367663292172
0.5666758351670333;0.6330075996974651;0.5085555122199302
0.5688637727545509;0.63627475393182;0.5100653816297818
0.5710517103420684;0.6395205477181481;0.5115662857952944
0.5732396479295859;0.6427445548602186;0.5130581366372224
0.5754275855171034;0.6459463525273346;0.5145408467711202
0.5776155231046209;0.6491255213720019;0.5160143295178128
0.5798034606921384;0.6522816456465742;0.5174784989137569
0.581991398279656;0.6554143133188508;0.5189332697212865
0.5841793358671734;0.6585231161865523;0.5203785574387582
0.586367273454691;0.661607649990664;0.5218142783105734
0.5885552110422084;0.6646675145275461;0.5232403493370866
0.5907431486297259;0.6677023137598129;0.5246566882844017
0.5929310862172434;0.6707116559258963;0.5260632136940474
0.5951190238047609;0.6736951536482693;0.5274598448925273
0.5973069613922785;0.6766524240402677;0.5288465020007522
0.5994948989797959;0.6795830888114818;0.5302231059433483
0.6016828365673135;0.6824867743716502;0.5315895784578396
0.6038707741548309;0.6853631119330336;0.5329458421036979
0.6060587117423485;0.6882117376112007;0.5342918202712725
0.6082466493298659;0.6910322925242235;0.535627437190578
0.6104345869173835;0.6938244228901796;0.5369526179399648
0.612622524504901;0.6965877801229817;0.538267288454637
0.6148104620924185;0.6993220209264464;0.5395713755350545
0.616998399679936;0.7020268073865952;0.5408648068551811
0.6191863372674534;0.704701807062138;0.5421475109706114
0.621374274854971;0.7073466930730756;0.5434194173265379
0.6235622124424884;0.7099611441874304;0.5446804562655999
0.625750150030006;0.7125448449060414;0.5459305590355695
0.6279380876175235;0.7150974855453821;0.5471696577969095
0.630126025205041;0.717618762318384;0.5483976856301778
0.6323139627925585;0.7201083774132302;0.5496145765432867
0.634501900380076;0.7225660390700782;0.5508202654786188
0.6366898379675935;0.7249914616556775;0.5520146883199951
0.638877775555111;0.7273843657358636;0.55319778189948
0.6410657131426285;0.7297444781459057;0.5543694840040613
0.6432536507301461;0.7320715320586529;0.5555297333821546
0.6454415883176635;0.7343652670504764;0.5566784697499642
0.647629525905181;0.7366254291649589;0.5578156337976968
0.6498174634926985;0.738851770974349;0.5589411671956075
0.652005401080216;0.7410440516386957;0.5600550125999032
0.6541933386677335;0.743202036962702;0.5611571136584813
0.656381276255251;0.7453254994502141;0.5622474150165138
0.6585692138427686;0.7474142183563971;0.5633258623218774
0.660757151430286;0.7494679797375116;0.5643924022304164
0.6629450890178036;0.7514865764983065;0.5654469824110575
0.665133026605321;0.7534698084370222;0.5664895515507519
0.6673209641928386;0.7554174822879547;0.5675200593592721
0.669508901780356;0.7573294117615915;0.5685384565738297
0.6716968393678736;0.7592054175823065;0.5695446949635492
0.6738847769553911;0.761045327523572;0.5705387273337664
0.6760727145429085;0.7628489764407338;0.5715205075301745
0.6782606521304261;0.7646162063012816;0.5724899904427926
0.6804485897179435;0.7663468662126319;0.5734471320097907
0.6826365273054611;0.7680408124474352;0.574391889221133
0.6848244648929785;0.7696979084663532;0.5753242201220646
0.6870124024804961;0.7713180249383585;0.5762440838164384
0.6892003400680136;0.7729010397585069;0.5771514404698661
0.6913882776555311;0.7744468380632106;0.578046251312718
0.6935762152430486;0.7759553122429937;0.5789284786429374
0.6957641528305661;0.7774263619527427;0.5797980858287226
0.6979520904180836;0.7788598941194288;0.5806550373110047
0.7001400280056012;0.7802558229473662;0.5814992986057886
0.7023279655931186;0.7816140699209184;0.5823308363063212
0.7045159031806361;0.7829345638047479;0.5831496180850892
0.7067038407681536;0.7842172406415432;0.583955612695658
0.7088917783556711;0.7854620437473006;0.5847487899743383
0.7110797159431886;0.7866689237040938;0.5855291208416982
0.7132676535307061;0.787837838350421;0.5862965773039023
0.7154555911182237;0.7889687527690536;0.5870511324538861
0.7176435287057411;0.7900616392724995;0.5877927604723776
0.7198314662932587;0.7911164773859946;0.5885214366287378
0.7220194038807761;0.7921332538281153;0.5892371372816495
0.7242073414682937;0.793111962488973;0.5899398398796406
0.7263952790558111;0.7940526044060655;0.5906295229614441
0.7285832166433286;0.7949551877377191;0.5913061661561941
0.7307711542308462;0.795819727734254;0.5919697501834598
