Grain Radius of Reference Sphere (µm);Normalized Density Input (-);Normalized Density Output (-)
0.0;0.017949036995218968;0.0887484815133395
0.0021879375875175034;0.01836382859562988;0.08955614523519193
0.004375875175035007;0.01878682916119145;0.09036897298534573
0.00656381276255251;0.019218165505432202;0.09118697255010301
0.008751750350070014;0.01965796553628677;0.09201015142563833
0.010939687937587518;0.020106358244663038;0.092838516814991
0.01312762552510502;0.020563473692387514;0.09367207562507412
0.015315563112622523;0.021029442999518783;0.09451083446369433
0.017503500700140028;0.021504398331022325;0.09535479963658673
0.019691438287657532;0.021988472882798007;0.09620397714446426
0.021879375875175036;0.022481800867053692;0.09705837268008093
0.024067313462692537;0.02298451749701579;0.09791799162531177
0.02625525105021004;0.023496758970971157;0.09878283904824905
0.028443188637727546;0.024018662455631935;0.0996529197003143
0.030631126225245046;0.0245503660688175;0.10052823801338756
0.032819063812762554;0.025092008861444807;0.10140879809695628
0.035007001400280055;0.025643730798823313;0.10229460373527978
0.037194938987797556;0.02620567274124587;0.10318565838457552
0.039382876575315064;0.02677797642387024;0.1040819651702226
0.041570814162832564;0.02736078443588585;0.10498352688398731
0.04375875175035007;0.02795424019895938;0.10589034598126806
0.04594668933786757;0.028558487944953744;0.1068024245783619
0.048134626925385074;0.029173672692916725;0.10771976444975366
0.05032256451290258;0.02979994022533199;0.10864236702542632
0.05251050210042008;0.030437437063630057;0.10957023338819534
0.05469843968793758;0.03108631044295358;0.11050336427106633
0.05688637727545509;0.031746708286173965;0.11144176005461587
0.05907431486297259;0.03241877917715399;0.11238542076439934
0.06126225245049009;0.03310267233325487;0.11333434606838193
0.0634501900380076;0.033798537577082934;0.11428853527439599
0.06563812762552511;0.03450652530747452;0.1152479873276259
0.0678260652130426;0.03522678646971526;0.11621270080811844
0.07001400280056011;0.03595947252499332;0.11718267392832216
0.07220194038807762;0.03670473541908248;0.1181579045306539
0.07438987797559511;0.03746272755025557;0.11913839008509422
0.07657781556311262;0.03823360173642671;0.12012412768681295
0.07876575315063013;0.03901751118152068;0.12111511405382326
0.08095369073814762;0.03981460944107005;0.12211134552466736
0.08314162832566513;0.04062505038703979;0.12311281805613249
0.08532956591318264;0.041448988171879864;0.12411952722099882
0.08751750350070014;0.04228657719180614;0.12513146820581925
0.08970544108821764;0.04313797204931075;0.12614863580873198
0.09189337867573515;0.04400332751490545;0.12717102443730574
0.09408131626325265;0.044882798488096655;0.12819862810642071
0.09626925385077015;0.04577653995759659;0.1292314404361806
0.09845719143828766;0.04668470696077521;0.13026945464986245
0.10064512902580516;0.04760745454235033;0.13131266357190105
0.10283306661332266;0.04854493771232764;0.13236105962590777
0.10502100420084017;0.04949731140318802;0.1334146348327284
0.10720894178835767;0.05046473042632986;0.13447338080853605
0.10939687937587517;0.05144734942777128;0.1355372887629623
0.11158481696339267;0.052445322843117675;0.13660634949726672
0.11377275455091018;0.05345880485180081;0.13768055340254454
0.11596069213842768;0.05448794933059348;0.13875989045797327
0.11814862972594518;0.05553290980641155;0.13984435022910022
0.12033656731346269;0.05659383940840593;0.14093392186616804
0.12252450490098019;0.05767089081935591;0.1420285941024831
0.1247124424884977;0.0587642162263694;0.14312835525282314
0.1269003800760152;0.05987396727090126;0.14423319321188832
0.1290883176635327;0.061000294998098496;0.14534309545279314
0.13127625525105022;0.06214334980548109;0.14645804902560178
0.1334641928385677;0.0633032813909695;0.14757804055590534
0.1356521304260852;0.06448023870027175;0.1487030562434447
0.1378400680136027;0.0656743698736364;0.14983308186077543
0.14002800560112022;0.06688582219198999;0.15096810275197875
0.14221594318863773;0.06811474202246559;0.152108103831417
0.14440388077615524;0.06936127476333746;0.15325306958253354
0.14659181836367274;0.07062556478837691;0.15440298405670053
0.14877975595119022;0.07190775539064109;0.1555578308721113
0.15096769353870773;0.07320798872570898;0.15671759321272138
0.15315563112622524;0.07452640575438232;0.157882253827234
0.15534356871374275;0.0758631461848617;0.15905179502813632
0.15753150630126025;0.07721834841442185;0.16022619869078197
0.15971944388877776;0.07859214947059234;0.16140544625252246
0.16190738147629524;0.07998468495187083;0.16258951871188715
0.16409531906381275;0.08139608896797859;0.16377839662781402
0.16628325665133026;0.0828264940796811;0.16497206011892754
0.16847119423884777;0.08427603123818954;0.16617048886286934
0.17065913182636527;0.08574482972416374;0.16737366209567825
0.17284706941388278;0.08723301708633469;0.16858155861121973
0.1750350070014003;0.08874071907976862;0.16979415676067025
0.17722294458891777;0.0902680596037901;0.17101143445204822
0.17941088217643528;0.09181516063958887;0.17223336914980206
0.18159881976395278;0.09338214218752766;0.17345993787444627
0.1837867573514703;0.09496912220417789;0.17469111720225303
0.1859746949389878;0.09657621653909956;0.17592688326499478
0.1881626325265053;0.09820353887139385;0.17716721174974154
0.1903505701140228;0.09985120064604924;0.1784120778987109
0.1925385077015403;0.1015193110101031;0.17966145650917226
0.1947264452890578;0.10320797674864701;0.18091532193340445
0.1969143828765753;0.10491730222069659;0.18217364807871017
0.19910232046409282;0.10664738929495436;0.18343640840748157
0.20129025805161033;0.10839833728548767;0.18470357593732364
0.2034781956391278;0.11017024288734974;0.18597512324123264
0.20566613322664531;0.11196320011217055;0.187251022447828
0.20785407081416282;0.11377730022374352;0.18853124524164294
0.21004200840168033;0.11561263167363059;0.18981576286346807
0.21222994598919784;0.11746928003682573;0.19110454611075364
0.21441788357671535;0.11934732794748774;0.19239756533806693
0.21660582116423285;0.12124685503478598;0.19369479045760743
0.21879375875175033;0.12316793785887585;0.19499619093977616
0.22098169633926784;0.12511064984704243;0.19630173581380633
0.22316963392678535;0.12707506123003187;0.197611393668447
0.22535757151430286;0.1290612389786094;0.19892513265270698
0.22754550910182036;0.13106924674036605;0.20024292047665468
0.22973344668933787;0.13309914477680923;0.2015647244122761
0.23192138427685535;0.13515098990076613;0.20289051129439112
0.23410932186437286;0.13722483541412714;0.20422024752162765
0.23629725945189037;0.13932073104596726;0.20555389905745242
0.23848519703940788;0.1414387228910668;0.2068914314312623
0.24067313462692538;0.14357885334887252;0.20823280973953134
0.2428610722144429;0.14574116106292845;0.20957799864701912
0.24504900980196037;0.14792568086079444;0.21092696238803466
0.24723694738947788;0.15013244369451034;0.21227966476776045
0.2494248849769954;0.15236147658161325;0.2136360691636349
0.2516128225645129;0.15461280254675178;0.21499613852679295
0.2538007601520304;0.1568864405639281;0.21635983538356526
0.2559886977395479;0.15918240549939947;0.21772712183703727
0.2581766353270654;0.16150070805527256;0.21909795956866523
0.2603645729145829;0.16384135471381828;0.2204723098399522
0.26255251050210043;0.16620434768254472;0.22185013349418223
0.26474044808961794;0.16858968484006348;0.2232313909582123
0.2669283856771354;0.1709973596827718;0.2246160422443254
0.2691163232646529;0.17342736127239022;0.22600404695213894
0.2713042608521704;0.17587967418438938;0.2273953642705751
0.2734921984396879;0.17835427845733376;0.22878995297988675
0.2756801360272054;0.18085114954317694;0.2301877714537429
0.27786807361472293;0.1833702582585417;0.23158877766137279
0.28005601120224044;0.18591157073701284;0.23299292916976805
0.28224394878975795;0.18847504838248536;0.23440018314594385
0.28443188637727546;0.19106064782358204;0.2358104963592544
0.28661982396479296;0.1936683208691912;0.2372238251837713
0.28880776155231047;0.19629801446514453;0.23864012560071662
0.290995699139828;0.19894967065206753;0.2400593532009543
0.2931836367273455;0.2016232265244404;0.24148146318753802
0.29537157431486294;0.2043186141908902;0.2429064103783191
0.29755951190238045;0.20703576073575441;0.24433414920860666
0.29974744948989795;0.20977458818194158;0.2457646337338911
0.30193538707741546;0.21253501345511466;0.24719781763261767
0.30412332466493297;0.21531694834923906;0.24863365420902023
0.3063112622524505;0.2181202994935145;0.25007209639601247
0.308499199839968;0.22094496832071867;0.25151309675812983
0.3106871374274855;0.22379085103700228;0.25295660749453264
0.312875075015003;0.22665783859315064;0.25440258044206165
0.3150630126025205;0.22954581665735158;0.25585096707835037
0.317250950190038;0.2324546655894836;0.2573017185249895
0.3194388877775555;0.23538426041696506;0.25875478555075077
0.32162682536507303;0.2383344708121839;0.26021011857485965
0.3238147629525905;0.2413051610715278;0.26166766767032673
0.326002700540108;0.24429619009605671;0.26312738256732804
0.3281906381276255;0.24730741137382506;0.2645892126566444
0.330378575715143;0.2503386729638833;0.2660531069931487
0.3325665133026605;0.25338981748199496;0.26751901429934816
0.334754450890178;0.25646068208807166;0.26898688296897694
0.33694238847769553;0.25955109847536223;0.2704566610706451
0.33913032606521304;0.2626608928614138;0.2719282963515327
0.34131826365273055;0.26578988598082676;0.27340173624113967
0.34350620124024805;0.26893789307982324;0.274876927855085
0.34569413882776556;0.2721047239126454;0.27635381799895464
0.34788207641528307;0.27529018273981504;0.277832353172201
0.3500700140028006;0.2784940683282544;0.27931247957209193
0.35225795159031803;0.28171617395329995;0.28079414309770634
0.35444588917783554;0.2849562874026204;0.2822772893539801
0.35663382676535305;0.2882141909820569;0.283761863655801
0.35882176435287055;0.29148966152339795;0.2852478110321468
0.36100970194038806;0.2947824703941036;0.286735076230274
0.36319763952790557;0.29809238350899764;0.2882236037199534
0.3653855771154231;0.30141916134393115;0.2897133376977486
0.3675735147029406;0.3047625589514411;0.29120422209134084
0.3697614522904581;0.3081223259784013;0.29269620056390144
0.3719493898779756;0.3114982066856884;0.2941892165185035
0.3741373274654931;0.31488993996986325;0.29568321310258255
0.3763252650530106;0.31829725938688036;0.2971781332124369
0.37851320264052807;0.32171989317783145;0.2986739194977713
0.3807011402280456;0.3251575642967291;0.3001705143662847
0.3828890778155631;0.32860999044033573;0.3016678599882942
0.3850770154030806;0.3320768840800428;0.3031658983014074
0.3872649529905981;0.33555795249580506;0.30466457101522815
0.3894528905781156;0.33905289781213116;0.30616381961610484
0.3916408281656331;0.3425614170361268;0.307663585371919
0.3938287657531506;0.34608320209760357;0.3091638093369084
0.39601670334066813;0.3496179398912366;0.3106644323565308
0.39820464092818564;0.35316531232079246;0.3121653950723654
0.40039257851570315;0.3567249963453875;0.31366663792704724
0.40258051610322065;0.3602966640278212;0.3151681011692393
0.40476845369073816;0.36387998258493387;0.3166697248586409
0.4069563912782556;0.3674746144400183;0.31817144887102733
0.4091443288657731;0.37108021727725404;0.31967321290332606
0.41133226645329063;0.3746964440981734;0.3211749564787237
0.41352020404080814;0.37832294328013794;0.3226766189518071
0.41570814162832564;0.3819593586368232;0.3241781395137341
0.41789607921584315;0.38560532948070153;0.3256794571974349
0.42008401680336066;0.38926049068750324;0.32718051088284766
0.42227195439087817;0.39292447276264353;0.3286812393021769
0.4244598919783957;0.39659690190962116;0.33018158104518397
0.4266478295659132;0.40027740010034124;0.33168147456450775
0.4288357671534307;0.4039655851473656;0.33318085818100734
0.4310237047409482;0.40766107077808006;0.3346796700891337
0.4332116423284657;0.4113634667107331;0.3361778483623275
0.43539957991598316;0.4150723787323667;0.3376753309584398
0.43758751750350067;0.4187874087785619;0.3391720557251786
0.4397754550910182;0.42250815501505645;0.340667960405577
0.4419633926785357;0.426234211921117;0.3421629826434838
0.4441513302660532;0.4299651703747397;0.34365705998907825
0.4463392678535707;0.4337006177395648;0.3451501299044008
0.4485272054410882;0.4374401379535588;0.34664212976890907
0.4507151430286057;0.44118331161936597;0.3481329968850492
0.4529030806161232;0.44492971609637383;0.34962266848384743
0.45509101820364073;0.44867892559438777;0.3511110817305182
0.45727895579115824;0.45243051126894873;0.35259817373008934
0.45946689337867574;0.45618404131823803;0.35408388153304543
0.46165483096619325;0.4599390810815218;0.35556814214097904
0.4638427685537107;0.4636951931391369;0.35705089251226646
0.4660307061412282;0.4674519374139565;0.35853206956774786
0.4682186437287457;0.47120887127431316;0.36001161019642597
0.47040658131626323;0.4749655496383481;0.3614894512611712
0.47259451890378074;0.4787215250797373;0.3629655296044424
0.47478245649129824;0.482476347934768;0.3644397820540154
0.47697039407881575;0.48622956641073395;0.36591214542872086
0.47915833166633326;0.4899807266955814;0.3673825565441883
0.48134626925385077;0.4937293730688153;0.36885095221860237
0.4835342068413683;0.4974750480135643;0.37031726927846104
0.4857221444288858;0.50121729232983;0.37178144456434226
0.4879100820164033;0.5049556452488109;0.3732434149366722
0.49009801960392074;0.5086896445483305;0.3747031172815017
0.49228595719143825;0.512418826669245;0.37616048851628553
0.49447389477895576;0.5161427268328713;0.37761546559565423
0.49666183236647327;0.5198608791593221;0.3790679855172051
0.4988497699539908;0.523572816786739;0.3805179853272746
0.5010377075415083;0.5272780719913684;0.38196540212672503
0.5032256451290258;0.5309761763084377;0.3834101730767228
0.5054135827165432;0.5346666606537753;0.3848522354045124
0.5076015203040608;0.53834905544613;0.3862915264091956
0.5097894578915783;0.5420228907301574;0.3877279834674981
0.5119773954790958;0.5456876962999935;0.389161544039536
0.5141653330666133;0.5493430018234001;0.3905921456745779
0.5163532706541308;0.5529883369664004;0.39201972601679363
0.5185412082416483;0.5566232315183901;0.39344422281100433
0.5207291458291659;0.5602472155176352;0.3948655739084183
0.5229170834166833;0.5638598193771289;0.39628371727235817
0.5251050210042009;0.5674605740107679;0.3976985909839814
0.5272929585917183;0.5710490109597512;0.3991101332479871
0.5294808961792359;0.574624662519206;0.40051828239830894
0.5316688337667533;0.5781870618649462;0.40192297690380374
0.5338567713542708;0.5817357431803324;0.40332415537391386
0.5360447089417884;0.585270241783168;0.404721756564329
0.5382326465293058;0.5887900942525954;0.4061157193826228
0.5404205841168234;0.5922948385559199;0.40750598289387546
0.5426085217043408;0.5957840141753246;0.4088924863262839
0.5447964592918584;0.5992571622344068;0.4102751690767483
0.5469843968793758;0.602713825624508;0.4116539707164443
0.5491723344668934;0.6061535491307519;0.41302883099637394
0.5513602720544108;0.6095758795577592;0.414399689852895
0.5535482096419284;0.6129803658549886;0.41576648741323113
0.5557361472294459;0.6163665592416313;0.41712916400096356
0.5579240848169634;0.6197340133310225;0.4184876601414897
0.5601120224044809;0.6230822842545102;0.4198419165674673
0.5622999599919983;0.626410930784733;0.4211918742242342
0.5644878975795159;0.6297195144582504;0.42253747427519517
0.5666758351670333;0.6330075996974651;0.4238786581071926
0.5688637727545509;0.63627475393182;0.42521536733584075
0.5710517103420684;0.6395205477181481;0.42654754381083915
0.5732396479295859;0.6427445548602186;0.4278751296212579
0.5754275855171034;0.6459463525273346;0.4291980671007853
0.5776155231046209;0.6491255213720019;0.43051629883295817
0.5798034606921384;0.6522816456465742;0.43182976765635067
0.581991398279656;0.6554143133188508;0.43313841666973657
0.5841793358671734;0.6585231161865523;0.43444218923721856
0.586367273454691;0.661607649990664;0.4357410289933245
0.5885552110422084;0.6646675145275461;0.437034879848069
0.5907431486297259;0.6677023137598129;0.4383236859919835
0.5929310862172434;0.6707116559258963;0.439607391901106
0.5951190238047609;0.6736951536482693;0.4408859423419364
0.5973069613922785;0.6766524240402677;0.4421592823763629
0.5994948989797959;0.6795830888114818;0.4434273573665343
0.6016828365673135;0.6824867743716502;0.444690112979716
0.6038707741548309;0.6853631119330336;0.44594749519308524
0.6060587117423485;0.6882117376112007;0.44719945029850156
0.6082466493298659;0.6910322925242235;0.44844592490723323
0.6104345869173835;0.6938244228901796;0.44968686595463914
0.612622524504901;0.6965877801229817;0.45092222070481497
0.6148104620924185;0.6993220209264464;0.4521519367551923
0.616998399679936;0.7020268073865952;0.45337596204109853
0.6191863372674534;0.704701807062138;0.4545942448402685
0.621374274854971;0.7073466930730756;0.4558067337773197
0.6235622124424884;0.7099611441874304;0.4570133778281731
0.625750150030006;0.7125448449060414;0.4582141263244378
0.6279380876175235;0.7150974855453821;0.4594089289577414
0.630126025205041;0.717618762318384;0.46059773578402347
0.6323139627925585;0.7201083774132302;0.4617804972277717
0.634501900380076;0.7225660390700782;0.46295716408621507
0.6366898379675935;0.7249914616556775;0.4641276875334719
0.638877775555111;0.7273843657358636;0.46529201912464224
0.6410657131426285;0.7297444781459057;0.4664501107998566
0.6432536507301461;0.7320715320586529;0.4676019148882722
0.6454415883176635;0.7343652670504764;0.46874738411201705
0.647629525905181;0.7366254291649589;0.46988647159008723
0.6498174634926985;0.738851770974349;0.4710191308421905
0.652005401080216;0.7410440516386957;0.47214531579253494
0.6541933386677335;0.743202036962702;0.473264980773572
0.656381276255251;0.7453254994502141;0.47437808052967995
0.6585692138427686;0.7474142183563971;0.47548457022079743
0.660757151430286;0.7494679797375116;0.4765844054259999
0.6629450890178036;0.7514865764983065;0.4776775421470303
0.665133026605321;0.7534698084370222;0.4787639368117599
0.6673209641928386;0.7554174822879547;0.47984354627761194
0.669508901780356;0.7573294117615915;0.48091632783491045
0.6716968393678736;0.7592054175823065;0.4819822392101937
0.6738847769553911;0.761045327523572;0.48304123856945236
0.6760727145429085;0.7628489764407338;0.48409328452132083
0.6782606521304261;0.7646162063012816;0.485138336120215
0.6804485897179435;0.7663468662126319;0.48617635286940003
0.6826365273054611;0.7680408124474352;0.4872072947240103
0.6848244648929785;0.7696979084663532;0.4882311220940078
0.6870124024804961;0.7713180249383585;0.48924779584708894
0.6892003400680136;0.7729010397585069;0.49025727731151186
0.6913882776555311;0.7744468380632106;0.49125952827889136
0.6935762152430486;0.7759553122429937;0.4922545110069178
0.6957641528305661;0.7774263619527427;0.4932421882220181
0.6979520904180836;0.7788598941194288;0.4942225231219635
0.7001400280056012;0.7802558229473662;0.49519547937840785
0.7023279655931186;0.7816140699209184;0.496161021139373
0.7045159031806361;0.7829345638047479;0.49711911303166945
0.7067038407681536;0.7842172406415432;0.4980697201632586
0.7088917783556711;0.7854620437473006;0.4990128081255515
0.7110797159431886;0.7866689237040938;0.4999483429956474
0.7132676535307061;0.787837838350421;0.5008762913385083
0.7154555911182237;0.7889687527690536;0.5017966202090828
0.7176435287057411;0.7900616392724995;0.502709297154346
0.7198314662932587;0.7911164773859946;0.5036142902153022
0.7220194038807761;0.7921332538281153;0.5045115679289116
0.7242073414682937;0.793111962488973;0.5054010993299501
0.7263952790558111;0.7940526044060655;0.5062828539528266
0.7285832166433286;0.7949551877377191;0.5071568018333109
0.7307711542308462;0.795819727734254;0.5080229135102279
