Grain Radius of Reference Sphere (µm);Normalized Density Input (-);Normalized Density Output (-)
0.0;0.04159410476844879;0.1310133025082088
0.0034381876375275057;0.04221471786382644;0.1315311387908336
0.006876375275055011;0.04284207614755946;0.1320493632795407
0.010314562912582518;0.0434762074466622;0.13256796517234534
0.013752750550110023;0.04411713888853105;0.13308693362089025
0.01719093818763753;0.04476489688652631;0.1336062577308584
0.020629125825165035;0.04541950712558547;0.13412592656238906
0.02406731346269254;0.046080994547869965;0.13464592913049922
0.027505501100220046;0.04674938333845444;0.1351662544055085
0.03094368873774755;0.04742469691106098;0.135686891313467
0.03438187637527506;0.04810695789384569;0.13620782873658918
0.037820064012802565;0.04879618811524198;0.1367290555136906
0.04125825165033007;0.04949240858986786;0.13725056044062822
0.044696439287857576;0.050195639504500206;0.1377723322707458
0.04813462692538508;0.0509059002041248;0.13829435971532253
0.051572814562912586;0.05162320917806501;0.1388166314440253
0.05501100220044009;0.05234758404619651;0.13933913608536577
0.0584491898379676;0.053079041545254585;0.13986186222716035
0.0618873774754951;0.05381759751523634;0.14038479841699467
0.06532556511302261;0.05456326688590901;0.14090793316269132
0.06876375275055012;0.05531606366342276;0.14143125493278216
0.07220194038807762;0.05607600091704385;0.14195475215698308
0.07564012802560513;0.05684309076600321;0.14247841322667398
0.07907831566313263;0.057617344366474844;0.14300222649538125
0.08251650330066014;0.05839877189868464;0.14352618027926456
0.08595469093818764;0.059187382554159305;0.1440502628576073
0.08939287857571515;0.05998318452311726;0.14457446247331
0.09283106621324265;0.06078618498201155;0.14509876733338795
0.09626925385077016;0.06159639008122725;0.1456231656094723
0.09970744148829766;0.06241380493294265;0.1461476454383148
0.10314562912582517;0.06323843359915561;0.14667219492229472
0.10658381676335267;0.06407027907988591;0.1471968021299315
0.11002200440088018;0.06490934330155472;0.1477214550963993
0.1134601920384077;0.06575562710555377;0.14824614182404422
0.1168983796759352;0.06660913023699888;0.1487708502829074
0.1203365673134627;0.06746985133368782;0.14929556841124916
0.1237747549509902;0.06833778791525508;0.1498202841160772
0.1272129425885177;0.06921293637253868;0.150344985273678
0.13065113022604521;0.07009529195716035;0.150869659730152
0.13408931786357273;0.07098484877132509;0.1513942953019512
0.13752750550110024;0.07188159975784623;0.15191887977642
0.14096569313862772;0.07278553669040315;0.15244340091233965
0.14440388077615524;0.07369665016403411;0.15296784644047548
0.14784206841368275;0.07461492958587199;0.15349220406412695
0.15128025605121026;0.07554036316612874;0.1540164614596815
0.15471844368873774;0.0764729379093309;0.1545406062771703
0.15815663132626526;0.07741263960581546;0.15506462614082753
0.16159481896379277;0.07835945282348958;0.1555885086496532
0.16503300660132028;0.0793133608998572;0.15611224137797708
0.1684711942388478;0.08027434593432418;0.15663581187602754
0.17190938187637528;0.081242388780777;0.15715920767050162
0.1753475695139028;0.08221746904045198;0.15768241626513832
0.1787857571514303;0.08319956505508842;0.15820542514129535
0.18222394478895781;0.08418865390037981;0.15872822175852727
0.1856621324264853;0.08518471137972304;0.1592507935551672
0.1891003200640128;0.08618771201826998;0.15977312794891055
0.19253850770154032;0.08719762905728905;0.1602952123374021
0.19597669533906784;0.08821443444883983;0.1608170340988247
0.19941488297659532;0.08923809885076327;0.16133858059249073
0.20285307061412283;0.09026859162199513;0.16185983915943644
0.20629125825165034;0.09130588081820651;0.16238079712301826
0.20972944588917786;0.09234993318777032;0.16290144178951138
0.21316763352670534;0.09340071416806808;0.16342176044871073
0.21660582116423285;0.09445818788212842;0.1639417403745349
0.22004400880176037;0.09552231713561242;0.16446136882563095
0.22348219643928788;0.09659306341414255;0.16498063304598257
0.2269203840768154;0.0976703868809804;0.1654995202655198
0.23035857171434287;0.09875424637505974;0.1660180177007313
0.2337967593518704;0.09984459940937179;0.16653611255527798
0.2372349469893979;0.10094140216971359;0.16705379202060933
0.2406731346269254;0.10204460951379718;0.16757104327658137
0.2441113222644529;0.10315417497072443;0.16808785349207658
0.2475495099019804;0.1042700507408297;0.1686042098256256
0.2509876975395079;0.10539218769589588;0.16912009942603135
0.2544258851770354;0.10652053537973875;0.16963550943299394
0.2578640728145629;0.10765504200917694;0.17015042697773816
0.26130226045209043;0.10879565447537018;0.17066483918364228
0.26474044808961794;0.10994231834554365;0.17117873316686863
0.26817863572714545;0.11109497786509448;0.1716920960369958
0.27161682336467297;0.11225357596008355;0.17220491489765238
0.2750550110022005;0.11341805424011016;0.1727171768471524
0.278493198639728;0.11458835300157955;0.17322886897913126
0.28193138627725545;0.11576441123135413;0.1737399783831852
0.28536957391478296;0.1169461666108016;0.17425049214550956
0.28880776155231047;0.11813355552022989;0.1747603973495403
0.292245949189838;0.11932651304371793;0.1752696810765961
0.2956841368273655;0.12052497297433706;0.17577833040652147
0.299122324464893;0.12172886781976991;0.1762863324183316
0.3025605121024205;0.12293812880832387;0.17679367419085804
0.30599869973994803;0.12415268589533583;0.1773003428033955
0.3094368873774755;0.12537246776997707;0.1778063253363492
0.312875075015003;0.12659740186245022;0.17831160887188466
0.3163132626525305;0.1278274143515833;0.1788161804945768
0.319751450290058;0.12906243017281926;0.17932002729206076
0.32318963792758554;0.13030237302659606;0.17982313635568384
0.32662782556511305;0.1315471653871252;0.18032549478115725
0.33006601320264056;0.1327967285115607;0.1808270896692098
0.3335042008401681;0.1340509824495619;0.18132790812624128
0.3369423884776956;0.13530984605324423;0.1818279372649773
0.34038057611522304;0.13657323698752363;0.18232716420512413
0.34381876375275056;0.13784107174084406;0.18282557607402472
0.34725695139027807;0.13911326563629772;0.18332316000731433
0.3506951390278056;0.14038973284312464;0.18381990314957725
0.3541333266653331;0.141670386388596;0.18431579265500445
0.3575715143028606;0.1429551381702828;0.18481081568805036
0.3610097019403881;0.14424389896869386;0.18530495942409062
0.36444788957791563;0.1455365784602989;0.18579821105008024
0.3678860772154431;0.14683308523091898;0.186290557765212
0.3713242648529706;0.14813332678948699;0.1867819867815742
0.3747624524904981;0.14943720958218146;0.18727248532480975
0.3782006401280256;0.15074463900691581;0.18776204063477386
0.38163882776555313;0.15205551942819617;0.18825063996619365
0.38507701540308065;0.15336975419233154;0.18873827058932593
0.38851520304060816;0.1546872456430007;0.18922491979061548
0.39195339067813567;0.15600789513716617;0.18971057487335385
0.3953915783156632;0.15733160306133862;0.19019522315833712
0.39882976595319064;0.15865826884817627;0.19067885198452372
0.40226795359071815;0.15998779099342944;0.19116144870969218
0.40570614122824566;0.1613200670732128;0.19164300071109802
0.4091443288657732;0.16265499376160944;0.19212349538613077
0.4125825165033007;0.16399246684859337;0.19260292015297015
0.4160207041408282;0.16533238125827832;0.19308126245124232
0.4194588917783557;0.16667463106747613;0.19355850974267505
0.4228970794158832;0.16801910952456364;0.19403464951175187
0.4263352670534107;0.1693657090686525;0.19450966926636698
0.4297734546909382;0.17071432134905815;0.19498355653847851
0.4332116423284657;0.17206483724506288;0.1954562988847608
0.4366498299659932;0.17341714688595763;0.19592788388725632
0.44008801760352073;0.17477113967137395;0.19639829915402712
0.44352620524104824;0.17612670429188368;0.19686753231980444
0.44696439287857576;0.1774837287498684;0.19733557104663793
0.45040258051610327;0.1788421003806523;0.19780240302454447
0.4538407681536308;0.1802017058738874;0.19826801597215432
0.45727895579115824;0.18156243129519173;0.19873239763735775
0.46071714342868575;0.1829241621080264;0.19919553579794969
0.46415533106621326;0.1842867831958083;0.19965741826227384
0.4675935187037408;0.18565017888425414;0.20011803286986474
0.4710317063412683;0.18701423296394024;0.20057736749208843
0.4744698939787958;0.18837882871308403;0.2010354100327832
0.4779080816163233;0.18974384892052568;0.2014921484288976
0.4813462692538508;0.1911091759089125;0.20194757065112692
0.4847844568913783;0.19247469155807853;0.2024016647045494
0.4882226445289058;0.19384027732859968;0.20285441862925974
0.4916608321664333;0.19520581428553602;0.2033058205010011
0.4950990198039608;0.19657118312233804;0.20375585843179678
0.49853720744148833;0.19793626418491403;0.2042045205705779
0.5019753950790158;0.19930093749585176;0.2046517951038116
0.5054135827165434;0.20066508277878872;0.20509767025612607
0.5088517703540708;0.2020285794829125;0.2055421342909342
0.5122899579915984;0.20339130680759934;0.20598517551105558
0.5157281456291258;0.2047531437271651;0.20642678225933542
0.5191663332666534;0.2061139690157371;0.20686694291926366
0.5226045209041809;0.20747366127222455;0.20730564591558961
0.5260427085417084;0.20883209894538576;0.20774287971493594
0.5294808961792359;0.2101891603589887;0.2081786328264107
0.5329190838167633;0.2115447237370399;0.20861289380221593
0.5363572714542909;0.2128986672290975;0.20904565123825558
0.5397954590918184;0.21425086893563267;0.20947689377474005
0.5432336467293459;0.2156012069334555;0.20990661009678802
0.5466718343668734;0.2169495593011781;0.21033478893502805
0.550110022004401;0.21829580414472022;0.2107614190661956
0.5535482096419284;0.21963981962283666;0.211186489313728
0.556986397279456;0.2209814839726646;0.21160998854835814
0.5604245849169834;0.2223206755352861;0.21203190568870417
0.5638627725545109;0.22365727278128236;0.21245222970185715
0.5673009601920385;0.22499115433628947;0.21287094960396638
0.5707391478295659;0.22632219900653452;0.21328805446082152
0.5741773354670935;0.2276502858043445;0.21370353338843256
0.5776155231046209;0.22897529397362304;0.2141173755536058
0.5810537107421485;0.2302971030152884;0.21452957017451932
0.584491898379676;0.23161559271265128;0.21494010652129264
0.5879300860172034;0.2329306431567441;0.21534897391655533
0.591368273654731;0.2342421347715722;0.2157561617360135
0.5948064612922584;0.23554994833929174;0.21616165940901047
0.598244648929786;0.23685396502530195;0.21656545641908653
0.6016828365673135;0.2381540664032453;0.2169675423045357
0.605121024204841;0.23945013447989283;0.21736790665895786
0.6085592118423685;0.24074205171993865;0.21776653913180946
0.6119973994798961;0.24202970107065383;0.21816342942894945
0.6154355871174235;0.24331296598642413;0.21855856731318293
0.618873774754951;0.24459173045314658;0.2189519426048014
0.6223119623924785;0.2458658790124841;0.21934354518211938
0.625750150030006;0.24713529678596374;0.21973336498200757
0.6291883376675336;0.2483998694989131;0.22012139200042313
0.632626525305061;0.24965948350422681;0.2205076162929361
0.6360647129425886;0.2509140258059668;0.22089202797525212
0.639502900580116;0.25216338408275824;0.22127461722373218
0.6429410882176436;0.2534074467110046;0.22165537427590817
0.6463792758551711;0.25464610278789795;0.2220342894309957
0.6498174634926985;0.25587924215422714;0.2224113530504016
0.6532556511302261;0.25710675541695405;0.22278655555823001
0.6566938387677536;0.2583285339715856;0.22315988744178264
0.6601320264052811;0.25954447002429565;0.2235313392520567
0.6635702140428086;0.2607544566138246;0.22390090160423792
0.6670084016803361;0.2619583876331245;0.2242685651781905
0.6704465893178636;0.26315615785075236;0.2246343207189434
0.6738847769553912;0.2643476629320037;0.22499815903717107
0.6773229645929186;0.26553279945978625;0.22536007100967242
0.6807611522304461;0.266711464955206;0.22572004757984399
0.6841993398679737;0.2678835578978903;0.22607807975815067
0.6876375275055011;0.26904897774601505;0.22643415862259064
0.6910757151430287;0.27020762495603945;0.22678827531915768
0.6945139027805561;0.2713594010021441;0.22714042106229831
0.6979520904180837;0.27250420839536404;0.22749058713536516
0.7013902780556112;0.27364195070241576;0.2278387648910673
0.7048284656931386;0.2747725325641951;0.2281849457519132
0.7082666533306662;0.2758958597139672;0.22852912121065336
0.7117048409681936;0.2770118389952182;0.22887128283071495
0.7151430286057212;0.2781203783791837;0.22921142224663546
0.7185812162432487;0.2792213869820274;0.2295495311644891
0.7220194038807762;0.2803147750816889;0.2298856013623106
0.7254575915183037;0.2814004541343735;0.23021962469051432
0.7288957791558313;0.28247833679069456;0.23055159307230763
0.7323339667933587;0.2835483369114561;0.23088149850410186
0.7357721544308862;0.2846103695830751;0.23120933305591723
0.7392103420684137;0.2856643511326377;0.23153508887178312
0.7426485297059412;0.28671019914258367;0.23185875817013535
0.7460867173434688;0.2877478324650167;0.2321803332442065
0.7495249049809962;0.28877717123564034;0.23249980646241386
0.7529630926185238;0.2897981368873088;0.2328171702687415
0.7564012802560512;0.2908106521631919;0.23313241718311736
0.7598394678935788;0.29181464112956007;0.23344553980178664
0.7632776555311063;0.292810029188163;0.23375653079767966
0.7667158431686337;0.2937967430882322;0.2340653829207755
0.7701540308061613;0.2947747109380709;0.23437208899846
0.7735922184436888;0.2957438622162572;0.23467664193587962
0.7770304060812163;0.2967041277824297;0.23497903471629128
0.7804685937187438;0.2976554398876931;0.23527926040140434
0.7839067813562713;0.29859773218458985;0.23557731213172176
0.7873449689937988;0.2995309397366846;0.23587318312687294
0.7907831566313264;0.3004549990277262;0.23616686668594353
0.7942213442688538;0.30136984797041044;0.23645835618779906
0.7976595319063813;0.30227542591471923;0.23674764509140495
0.8010977195439088;0.3031716736558486;0.23703472693614033
0.8045359071814363;0.30405853344172445;0.2373195953421072
0.8079740948189639;0.3049359489801073;0.2376022440104346
0.8114122824564913;0.3058038654452644;0.2378826667235781
0.8148504700940189;0.3066622294842474;0.23816085734561288
0.8182886577315464;0.30751098922272924;0.23843680982252333
0.8217268453690738;0.3083500942704473;0.23871051818248673
0.8251650330066014;0.30917949572620895;0.2389819765361513
0.8286032206441288;0.30999914618249297;0.23925117907691026
0.8320414082816564;0.31080899972963133;0.23951812008116904
0.8354795959191839;0.31160901195957047;0.2397827939086101
0.8389177835567114;0.3123991399692229;0.24004519500244773
0.8423559711942389;0.3131793423634002;0.24030531788968412
0.8457941588317665;0.31394957925733774;0.24056315718135396
0.8492323464692939;0.31470981227879824;0.2408187075727672
0.8526705341068214;0.3154600045697761;0.24107196384374652
0.8561087217443489;0.3162001207877783;0.24132292085885762
0.8595469093818764;0.3169301271067127;0.2415715735676363
0.862985097019404;0.3176499912173583;0.24181791700480837
0.8664232846569314;0.31835968232743705;0.24206194629050565
0.869861472294459;0.3190591711612868;0.24230365663047565
0.8732996599319864;0.3197484299591256;0.24254304331628676
0.876737847569514;0.3204274324759257;0.242780101725527
0.8801760352070415;0.32109615397989855;0.2430148273219989
0.8836142228445689;0.3217545712505689;0.24324721565590657
0.8870524104820965;0.3224026625764856;0.24347726236404046
0.8904905981196239;0.3230404077525257;0.2437049631699538
0.8939287857571515;0.3236677880768279;0.2439303138841352
0.897366973394679;0.32428478634733865;0.2441533104041763
0.9008051610322065;0.3248913868579898;0.2443739487149318
0.904243348669734;0.3254875753945004;0.24459222488867682
0.9076815363072616;0.32607333922980725;0.24480813508525623
0.911119723944789;0.3266486671191361;0.2450216755522306
0.9145579115823165;0.327213549294706;0.24523284262501432
0.917996099219844;0.3277679774600838;0.24544163272701194
0.9214342868573715;0.32831194478417897;0.2456480423697443
0.9248724744948991;0.32884544589489384;0.24585206815297356
0.9283106621324265;0.32936847687242976;0.24605370676481936
0.9317488497699541;0.32988103524225065;0.24625295498187183
0.9351870374074815;0.3303831199677183;0.2464498096692979
0.9386252250450091;0.33087473144238705;0.24664426778094195
0.9420634126825366;0.33135587148198564;0.2468363263594224
0.945501600320064;0.33182654331606937;0.2470259825362205
0.9489397879575916;0.33228675157935467;0.24721323353176636
0.952377975595119;0.3327365023027582;0.24739807665551614
0.9558161632326466;0.33317580290411175;0.24758050930602746
0.9592543508701741;0.3336046621785912;0.2477605289710262
0.9626925385077016;0.3340230902888408;0.24793813322746938
0.9661307261452291;0.3344310987548223;0.2481133197416019
0.9695689137827566;0.3348287004433584;0.24828608626900836
0.9730071014202841;0.3352159095574236;0.24845643065465914
0.9764452890578116;0.33559274162514025;0.2486243508329502
0.9798834766953392;0.3359592134885205;0.2487898448277387
0.9833216643328666;0.33631534329194773;0.248952910752372
0.9867598519703942;0.3366611504703931;0.2491135468097114
0.9901980396079216;0.33699665573738813;0.24927175129215162
0.9936362272454492;0.3373218810727649;0.24942752258163278
0.9970744148829767;0.33763684971013086;0.24958085914964787
1.0005126025205042;0.3379415861241431;0.24973175955724577
1.0039507901580316;0.33823611601753434;0.24988022245502634
1.0073889777955591;0.3385204663079372;0.2500262465831325
1.0108271654330867;0.3387946651144761;0.25016983077123534
1.0142653530706143;0.33905874174416967;0.25031097393851454
1.0177035407081416;0.339312726678118;0.2504496750936327
1.0211417283456692;0.33955665155751114;0.2505859333347052
1.0245799159831968;0.3397905491694298;0.2507197478492634
1.028018103620724;0.34001445343247755;0.25085111791421283
1.0314562912582517;0.3402283993822334;0.2509800428957875
1.0348944788957792;0.3404324231565335;0.251106522249496
1.0383326665333068;0.34062656198059055;0.25123055552006424
1.0417708541708341;0.34081085415195034;0.2513521423413724
1.0452090418083617;0.340985339025308;0.2514712824363864
1.0486472294458893;0.3411500569971709;0.2515879756170838
1.0520854170834169;0.34130504949038304;0.25170222178437457
1.0555236047209442;0.3414503589385274;0.25181402092801664
1.0589617923584718;0.34158602877018585;0.2519233731265255
1.0623999799959993;0.34171210339309005;0.25203027854707977
1.0658381676335267;0.34182862817816523;0.25213473744541987
1.0692763552710542;0.34193564944344623;0.2522367501657432
1.0727145429085818;0.34203321443791523;0.25233631714059174
1.0761527305461094;0.34212137132522363;0.2524334388907372
1.0795909181836367;0.34220016916734647;0.2525281160250586
1.0830291058211643;0.34226965790813413;0.2526203492404151
1.0864672934586919;0.34232988835680167;0.2527101393215155
1.0899054810962192;0.34238091217133804;0.2527974871407798
1.0933436687337468;0.34242278184185887;0.2528823936581972
1.0967818563712743;0.3424555506738943;0.2529648599211795
1.100220044008802;0.34247927277162393;0.25304488706440675
1.1036582316463293;0.3424940030210736;0.2531224763096711
1.1070964192838568;0.34249979707325795;0.2531976289657135
1.1105346069213844;0.34249671132729886;0.253270346428056
1.113972794558912;0.3424848029135073;0.25334063017882774
1.1174109821964393;0.3424641296764491;0.25340848178658903
1.1208491698339669;0.34243475015797764;0.25347390290614596
1.1242873574714944;0.3423967235802742;0.25353689527836487
1.1277255451090218;0.3423501098288624;0.2535974607299772
1.1311637327465494;0.34229496943563464;0.2536556011733827
1.134601920384077;0.34223136356187195;0.25371131860644736
1.1380401080216045;0.3421593539812784;0.25376461511229337
1.1414782956591318;0.3420790030630286;0.25381549285908866
1.1449164832966594;0.34199037375483854;0.25386395409982887
1.148354670934187;0.3418935295660472;0.25391000117211404
