Grain Radius of Reference Sphere (µm);Normalized Density Input (-);Normalized Density Output (-)
0.0;0.017949036995218968;0.14176703374244445
0.0021879375875175034;0.01836382859562988;0.14273044048323538
0.004375875175035007;0.01878682916119145;0.14369777937936354
0.00656381276255251;0.019218165505432202;0.14466904260110375
0.008751750350070014;0.01965796553628677;0.14564422207160665
0.010939687937587518;0.020106358244663038;0.14662330946606517
0.01312762552510502;0.020563473692387514;0.14760629621090096
0.015315563112622523;0.021029442999518783;0.14859317348296613
0.017503500700140028;0.021504398331022325;0.14958393220876576
0.019691438287657532;0.021988472882798007;0.15057856306369782
0.021879375875175036;0.022481800867053692;0.15157705647131148
0.024067313462692537;0.02298451749701579;0.1525794026025844
0.02625525105021004;0.023496758970971157;0.15358559137521904
0.028443188637727546;0.024018662455631935;0.15459561245295833
0.030631126225245046;0.0245503660688175;0.15560945524492006
0.032819063812762554;0.025092008861444807;0.15662710890495113
0.035007001400280055;0.025643730798823313;0.1576485623310019
0.037194938987797556;0.02620567274124587;0.15867380416451907
0.039382876575315064;0.02677797642387024;0.1597028227898604
0.041570814162832564;0.02736078443588585;0.16073560633372758
0.04375875175035007;0.02795424019895938;0.1617721426646213
0.04594668933786757;0.028558487944953744;0.16281241939231564
0.048134626925385074;0.029173672692916725;0.16385642386735316
0.05032256451290258;0.02979994022533199;0.16490414318056199
0.05251050210042008;0.030437437063630057;0.1659555641625916
0.05469843968793758;0.03108631044295358;0.1670106733834726
0.05688637727545509;0.031746708286173965;0.16806945715219565
0.05907431486297259;0.03241877917715399;0.16913190151631255
0.06126225245049009;0.03310267233325487;0.1701979922615589
0.0634501900380076;0.033798537577082934;0.17126771491149873
0.06563812762552511;0.03450652530747452;0.1723410547271901
0.0678260652130426;0.03522678646971526;0.1734179967068749
0.07001400280056011;0.03595947252499332;0.17449852558568732
0.07220194038807762;0.03670473541908248;0.1755826258353883
0.07438987797559511;0.03746272755025557;0.1766702816641203
0.07657781556311262;0.03823360173642671;0.17776147701618442
0.07876575315063013;0.03901751118152068;0.17885619557184188
0.08095369073814762;0.03981460944107005;0.1799544207471369
0.08314162832566513;0.04062505038703979;0.1810561356937434
0.08532956591318264;0.041448988171879864;0.18216132329883383
0.08751750350070014;0.04228657719180614;0.1832699661849725
0.08970544108821764;0.04313797204931075;0.18438204671003106
0.09189337867573515;0.04400332751490545;0.18549754696712867
0.09408131626325265;0.044882798488096655;0.18661644878459327
0.09626925385077015;0.04577653995759659;0.18773873372595148
0.09845719143828766;0.04668470696077521;0.1888643830899351
0.10064512902580516;0.04760745454235033;0.1899933779105187
0.10283306661332266;0.04854493771232764;0.19112569895697606
0.10502100420084017;0.04949731140318802;0.19226132673396396
0.10720894178835767;0.05046473042632986;0.19340024148162782
0.10939687937587517;0.05144734942777128;0.19454242317573303
0.11158481696339267;0.052445322843117675;0.19568785152782034
0.11377275455091018;0.05345880485180081;0.19683650598538596
0.11596069213842768;0.05448794933059348;0.19798836573208503
0.11814862972594518;0.05553290980641155;0.19914340968796182
0.12033656731346269;0.05659383940840593;0.20030161650970194
0.12252450490098019;0.05767089081935591;0.20146296459091334
0.1247124424884977;0.0587642162263694;0.2026274320624267
0.1269003800760152;0.05987396727090126;0.20379499679262608
0.1290883176635327;0.061000294998098496;0.2049656363878016
0.13127625525105022;0.06214334980548109;0.20613932819252787
0.1334641928385677;0.0633032813909695;0.20731604929006742
0.1356521304260852;0.06448023870027175;0.2084957765027999
0.1378400680136027;0.0656743698736364;0.20967848639267653
0.14002800560112022;0.06688582219198999;0.2108641552616987
0.14221594318863773;0.06811474202246559;0.21205275915242294
0.14440388077615524;0.06936127476333746;0.21324427384849215
0.14659181836367274;0.07062556478837691;0.2144386748751904
0.14877975595119022;0.07190775539064109;0.21563593750002388
0.15096769353870773;0.07320798872570898;0.21683603673332855
0.15315563112622524;0.07452640575438232;0.2180389473289013
0.15534356871374275;0.0758631461848617;0.21924464378465996
0.15753150630126025;0.07721834841442185;0.22045310034332374
0.15971944388877776;0.07859214947059234;0.2216642909931257
0.16190738147629524;0.07998468495187083;0.2228781894685455
0.16409531906381275;0.08139608896797859;0.22409476925107055
0.16628325665133026;0.0828264940796811;0.22531400356998338
0.16847119423884777;0.08427603123818954;0.22653586540317122
0.17065913182636527;0.08574482972416374;0.22776032747796754
0.17284706941388278;0.08723301708633469;0.22898736227201152
0.1750350070014003;0.08874071907976862;0.23021694201414067
0.17722294458891777;0.0902680596037901;0.23144903868530362
0.17941088217643528;0.09181516063958887;0.23268362401950168
0.18159881976395278;0.09338214218752766;0.23392066950475665
0.1837867573514703;0.09496912220417789;0.2351601463840998
0.1859746949389878;0.09657621653909956;0.23640202565659316
0.1881626325265053;0.09820353887139385;0.23764627807837096
0.1903505701140228;0.09985120064604924;0.2388928741637099
0.1925385077015403;0.1015193110101031;0.2401417841861233
0.1947264452890578;0.10320797674864701;0.24139297817948208
0.1969143828765753;0.10491730222069659;0.24264642593916053
0.19910232046409282;0.10664738929495436;0.24390209702320817
0.20129025805161033;0.10839833728548767;0.24515996075354612
0.2034781956391278;0.11017024288734974;0.24641998621719033
0.20566613322664531;0.11196320011217055;0.24768214226749913
0.20785407081416282;0.11377730022374352;0.24894639752544595
0.21004200840168033;0.11561263167363059;0.25021272038091946
0.21222994598919784;0.11746928003682573;0.2514810789940448
0.21441788357671535;0.11934732794748774;0.25275144129653543
0.21660582116423285;0.12124685503478598;0.2540237749930646
0.21879375875175033;0.12316793785887585;0.255298047562666
0.22098169633926784;0.12511064984704243;0.2565742262601576
0.22316963392678535;0.12707506123003187;0.25785227811758904
0.22535757151430286;0.1290612389786094;0.2591321699457183
0.22754550910182036;0.13106924674036605;0.26041386833550706
0.22973344668933787;0.13309914477680923;0.26169733965964653
0.23192138427685535;0.13515098990076613;0.26298255007410326
0.23410932186437286;0.13722483541412714;0.2642694655196913
0.23629725945189037;0.13932073104596726;0.26555805172367064
0.23848519703940788;0.1414387228910668;0.2668482742013658
0.24067313462692538;0.14357885334887252;0.2681400982578118
0.2428610722144429;0.14574116106292845;0.2694334889894227
0.24504900980196037;0.14792568086079444;0.27072841128568487
0.24723694738947788;0.15013244369451034;0.2720248298308739
0.2494248849769954;0.15236147658161325;0.2733227091057946
0.2516128225645129;0.15461280254675178;0.2746220133895452
0.2538007601520304;0.1568864405639281;0.27592270676130476
0.2559886977395479;0.15918240549939947;0.277224753102144
0.2581766353270654;0.16150070805527256;0.27852811609686046
0.2603645729145829;0.16384135471381828;0.2798327592358338
0.26255251050210043;0.16620434768254472;0.281138645816906
0.26474044808961794;0.16858968484006348;0.2824457389472865
0.2669283856771354;0.1709973596827718;0.2837540015454748
0.2691163232646529;0.17342736127239022;0.28506339634321026
0.2713042608521704;0.17587967418438938;0.28637388588744184
0.2734921984396879;0.17835427845733376;0.2876854325423201
0.2756801360272054;0.18085114954317694;0.28899799849121266
0.27786807361472293;0.1833702582585417;0.29031154573873974
0.28005601120224044;0.18591157073701284;0.29162603611283294
0.28224394878975795;0.18847504838248536;0.29294143126681454
0.28443188637727546;0.19106064782358204;0.2942576926814987
0.28661982396479296;0.1936683208691912;0.29557478166731244
0.28880776155231047;0.19629801446514453;0.2968926593664404
0.290995699139828;0.19894967065206753;0.2982112867549883
0.2931836367273455;0.2016232265244404;0.29953062464516705
0.29537157431486294;0.2043186141908902;0.30085063368749876
0.29755951190238045;0.20703576073575441;0.302171274373041
0.29974744948989795;0.20977458818194158;0.30349250703563235
0.30193538707741546;0.21253501345511466;0.30481429185415926
0.30412332466493297;0.21531694834923906;0.30613658885483785
0.3063112622524505;0.2181202994935145;0.30745935791352164
0.308499199839968;0.22094496832071867;0.3087825587580239
0.3106871374274855;0.22379085103700228;0.3101061509704582
0.312875075015003;0.22665783859315064;0.3114300939896034
0.3150630126025205;0.22954581665735158;0.3127543471132826
0.317250950190038;0.2324546655894836;0.3140788695007595
0.3194388877775555;0.23538426041696506;0.31540362017515816
0.32162682536507303;0.2383344708121839;0.31672855802589567
0.3238147629525905;0.2413051610715278;0.31805364181113643
0.326002700540108;0.24429619009605671;0.31937883016025986
0.3281906381276255;0.24730741137382506;0.32070408157634794
0.330378575715143;0.2503386729638833;0.32202935443869085
0.3325665133026605;0.25338981748199496;0.3233546070053067
0.334754450890178;0.25646068208807166;0.32467979741547903
0.33694238847769553;0.25955109847536223;0.3260048836923114
0.33913032606521304;0.2626608928614138;0.3273298237452958
0.34131826365273055;0.26578988598082676;0.32865457537289994
0.34350620124024805;0.26893789307982324;0.3299790962651674
0.34569413882776556;0.2721047239126454;0.33130334400633454
0.34788207641528307;0.27529018273981504;0.33262727607746156
0.3500700140028006;0.2784940683282544;0.3339508498590793
0.35225795159031803;0.28171617395329995;0.33527402263385075
0.35444588917783554;0.2849562874026204;0.33659675158924546
0.35663382676535305;0.2882141909820569;0.3379189938202269
0.35882176435287055;0.29148966152339795;0.3392407063319584
0.36100970194038806;0.2947824703941036;0.34056184604251827
0.36319763952790557;0.29809238350899764;0.34188236978562886
0.3653855771154231;0.30141916134393115;0.34320223431339875
0.3675735147029406;0.3047625589514411;0.34452139629907846
0.3697614522904581;0.3081223259784013;0.3458398123398272
0.3719493898779756;0.3114982066856884;0.3471574389594939
0.3741373274654931;0.31488993996986325;0.3484742326114054
0.3763252650530106;0.31829725938688036;0.3497901496811721
0.37851320264052807;0.32171989317783145;0.3511051464895006
0.3807011402280456;0.3251575642967291;0.3524191792950177
0.3828890778155631;0.32860999044033573;0.353732204297108
0.3850770154030806;0.3320768840800428;0.3550441776387579
0.3872649529905981;0.33555795249580506;0.3563550554094128
0.3894528905781156;0.33905289781213116;0.35766479364784104
0.3916408281656331;0.3425614170361268;0.3589733483450107
0.3938287657531506;0.34608320209760357;0.36028067544697223
0.39601670334066813;0.3496179398912366;0.36158673085775345
0.39820464092818564;0.35316531232079246;0.362891470442259
0.40039257851570315;0.3567249963453875;0.364194850029182
0.40258051610322065;0.3602966640278212;0.3654968254139202
0.40476845369073816;0.36387998258493387;0.36679735236150207
0.4069563912782556;0.3674746144400183;0.36809638660952043
0.4091443288657731;0.37108021727725404;0.3693938838710704
0.41133226645329063;0.3746964440981734;0.3706897998376976
0.41352020404080814;0.37832294328013794;0.37198409018235
0.41570814162832564;0.3819593586368232;0.37327671056233497
0.41789607921584315;0.38560532948070153;0.3745676166222883
0.42008401680336066;0.38926049068750324;0.3758567639971403
0.42227195439087817;0.39292447276264353;0.3771441083150926
0.4244598919783957;0.39659690190962116;0.37842960520059776
0.4266478295659132;0.40027740010034124;0.3797132102773436
0.4288357671534307;0.4039655851473656;0.3809948791712426
0.4310237047409482;0.40766107077808006;0.3822745675134236
0.4332116423284657;0.4113634667107331;0.3835522309432275
0.43539957991598316;0.4150723787323667;0.3848278251112067
0.43758751750350067;0.4187874087785619;0.3861013056821286
0.4397754550910182;0.42250815501505645;0.387372628337977
0.4419633926785357;0.426234211921117;0.38864174878096225
0.4441513302660532;0.4299651703747397;0.38990862273652793
0.4463392678535707;0.4337006177395648;0.3911732059563612
0.4485272054410882;0.4374401379535588;0.3924354542214065
0.4507151430286057;0.44118331161936597;0.3936953233448737
0.4529030806161232;0.44492971609637383;0.3949527691752559
0.45509101820364073;0.44867892559438777;0.3962077475993402
0.45727895579115824;0.45243051126894873;0.39746021454522173
0.45946689337867574;0.45618404131823803;0.39871012598531413
0.46165483096619325;0.4599390810815218;0.39995743793936644
0.4638427685537107;0.4636951931391369;0.40120210647747034
0.4660307061412282;0.4674519374139565;0.4024440877230713
0.4682186437287457;0.47120887127431316;0.40368333785597665
0.47040658131626323;0.4749655496383481;0.40491981311536074
0.47259451890378074;0.4787215250797373;0.4061534698027702
0.47478245649129824;0.482476347934768;0.407384264285124
0.47697039407881575;0.48622956641073395;0.40861215299771075
0.47915833166633326;0.4899807266955814;0.4098370924471853
0.48134626925385077;0.4937293730688153;0.4110590392145576
0.4835342068413683;0.4974750480135643;0.41227794995818173
0.4857221444288858;0.50121729232983;0.41349378141673654
0.4879100820164033;0.5049556452488109;0.4147064904122056
0.49009801960392074;0.5086896445483305;0.41591603385284964
0.49228595719143825;0.512418826669245;0.4171223687361735
0.49447389477895576;0.5161427268328713;0.41832545215189015
0.49666183236647327;0.5198608791593221;0.41952524128487517
0.4988497699539908;0.523572816786739;0.42072169341811777
0.5010377075415083;0.5272780719913684;0.4219147659356642
0.5032256451290258;0.5309761763084377;0.42310441632555484
0.5054135827165432;0.5346666606537753;0.4242906021827518
0.5076015203040608;0.53834905544613;0.42547328121206257
0.5097894578915783;0.5420228907301574;0.426652411231054
0.5119773954790958;0.5456876962999935;0.4278279501729546
0.5141653330666133;0.5493430018234001;0.4289998560895588
0.5163532706541308;0.5529883369664004;0.4301680871541085
0.5185412082416483;0.5566232315183901;0.4313326016641754
0.5207291458291659;0.5602472155176352;0.4324933580445322
0.5229170834166833;0.5638598193771289;0.43365031485001077
0.5251050210042009;0.5674605740107679;0.43480343076835326
0.5272929585917183;0.5710490109597512;0.43595266462305216
0.5294808961792359;0.574624662519206;0.4370979753761787
0.5316688337667533;0.5781870618649462;0.4382393221312021
0.5338567713542708;0.5817357431803324;0.4393766641357954
0.5360447089417884;0.585270241783168;0.4405099607846323
0.5382326465293058;0.5887900942525954;0.4416391716221686
0.5404205841168234;0.5922948385559199;0.44276425634541666
0.5426085217043408;0.5957840141753246;0.44388517480669964
0.5447964592918584;0.5992571622344068;0.4450018870164038
0.5469843968793758;0.602713825624508;0.4461143531457052
0.5491723344668934;0.6061535491307519;0.44722253352929403
0.5513602720544108;0.6095758795577592;0.44832638866807906
0.5535482096419284;0.6129803658549886;0.44942587923187854
0.5557361472294459;0.6163665592416313;0.450520966062101
0.5579240848169634;0.6197340133310225;0.45161161017440543
0.5601120224044809;0.6230822842545102;0.4526977727613532
0.5622999599919983;0.626410930784733;0.4537794151950378
0.5644878975795159;0.6297195144582504;0.4548564990297076
0.5666758351670333;0.6330075996974651;0.4559289860043653
0.5688637727545509;0.63627475393182;0.4569968380453567
0.5710517103420684;0.6395205477181481;0.45806001726893675
0.5732396479295859;0.6427445548602186;0.4591184859838307
0.5754275855171034;0.6459463525273346;0.4601722066937677
0.5776155231046209;0.6491255213720019;0.46122114210000065
0.5798034606921384;0.6522816456465742;0.4622652551038101
0.581991398279656;0.6554143133188508;0.46330450880899293
0.5841793358671734;0.6585231161865523;0.46433886652432566
0.586367273454691;0.661607649990664;0.46536829176601796
0.5885552110422084;0.6646675145275461;0.466392748260143
0.5907431486297259;0.6677023137598129;0.4674121999450526
0.5929310862172434;0.6707116559258963;0.4684266109737697
0.5951190238047609;0.6736951536482693;0.46943594571636466
0.5973069613922785;0.6766524240402677;0.4704401687623124
0.5994948989797959;0.6795830888114818;0.4714392449228298
0.6016828365673135;0.6824867743716502;0.47243313923318986
0.6038707741548309;0.6853631119330336;0.47342181695502406
0.6060587117423485;0.6882117376112007;0.4744052435785951
0.6082466493298659;0.6910322925242235;0.4753833848250562
0.6104345869173835;0.6938244228901796;0.4763562066486858
0.612622524504901;0.6965877801229817;0.4773236752391047
0.6148104620924185;0.6993220209264464;0.478285757023469
0.616998399679936;0.7020268073865952;0.4792424186686426
0.6191863372674534;0.704701807062138;0.4801936270833519
0.621374274854971;0.7073466930730756;0.48113934942031106
0.6235622124424884;0.7099611441874304;0.4820795530783351
0.625750150030006;0.7125448449060414;0.48301420570442133
0.6279380876175235;0.7150974855453821;0.4839432751958158
0.630126025205041;0.717618762318384;0.4848667297020527
0.6323139627925585;0.7201083774132302;0.4857845376269761
0.634501900380076;0.7225660390700782;0.4866966676307294
0.6366898379675935;0.7249914616556775;0.48760308863173585
0.638877775555111;0.7273843657358636;0.4885037698086408
0.6410657131426285;0.7297444781459057;0.4893986806022414
0.6432536507301461;0.7320715320586529;0.49028779071738826
0.6454415883176635;0.7343652670504764;0.4911710701248627
0.647629525905181;0.7366254291649589;0.4920484890632341
0.6498174634926985;0.738851770974349;0.4929200180406865
0.652005401080216;0.7410440516386957;0.49378562783682883
0.6541933386677335;0.743202036962702;0.4946452895044742
0.656381276255251;0.7453254994502141;0.49549897437139634
0.6585692138427686;0.7474142183563971;0.49634665404206607
0.660757151430286;0.7494679797375116;0.4971883003993533
0.6629450890178036;0.7514865764983065;0.498023885606215
0.665133026605321;0.7534698084370222;0.49885338210734853
0.6673209641928386;0.7554174822879547;0.4996767626308273
0.669508901780356;0.7573294117615915;0.500494000189701
0.6716968393678736;0.7592054175823065;0.5013050680835864
0.6738847769553911;0.761045327523572;0.5021099399002139
0.6760727145429085;0.7628489764407338;0.5029085895169596
0.6782606521304261;0.7646162063012816;0.5037009911023532
0.6804485897179435;0.7663468662126319;0.5044871191175491
0.6826365273054611;0.7680408124474352;0.5052669483177814
0.6848244648929785;0.7696979084663532;0.506040453753787
0.6870124024804961;0.7713180249383585;0.5068076107732061
0.6892003400680136;0.7729010397585069;0.5075683950219544
0.6913882776555311;0.7744468380632106;0.5083227824455642
0.6935762152430486;0.7759553122429937;0.5090707492905097
0.6957641528305661;0.7774263619527427;0.5098122721054954
0.6979520904180836;0.7788598941194288;0.5105473277427202
0.7001400280056012;0.7802558229473662;0.511275893359118
0.7023279655931186;0.7816140699209184;0.5119979464175697
0.7045159031806361;0.7829345638047479;0.5127134646880804
0.7067038407681536;0.7842172406415432;0.5134224262489475
0.7088917783556711;0.7854620437473006;0.5141248094878806
0.7110797159431886;0.7866689237040938;0.5148205931031061
0.7132676535307061;0.787837838350421;0.5155097561044464
0.7154555911182237;0.7889687527690536;0.5161922778143636
0.7176435287057411;0.7900616392724995;0.5168681378689751
0.7198314662932587;0.7911164773859946;0.5175373162190593
0.7220194038807761;0.7921332538281153;0.5181997931310048
0.7242073414682937;0.793111962488973;0.5188555491877583
0.7263952790558111;0.7940526044060655;0.5195045652897282
0.7285832166433286;0.7949551877377191;0.5201468226556718
0.7307711542308462;0.795819727734254;0.5207823028235427
