Grain Radius of Reference Sphere (µm);Normalized Density Input (-);Normalized Density Output (-)
0.0;0.04159410476844879;0.06320482540926498
0.0034381876375275057;0.04221471786382644;0.06369755202626401
0.006876375275055011;0.04284207614755946;0.06419261931060102
0.010314562912582518;0.0434762074466622;0.06469002305327284
0.013752750550110023;0.04411713888853105;0.06518975887034957
0.01719093818763753;0.04476489688652631;0.06569182220231237
0.020629125825165035;0.04541950712558547;0.06619620831340789
0.02406731346269254;0.046080994547869965;0.06670291229101878
0.027505501100220046;0.04674938333845444;0.06721192904505145
0.03094368873774755;0.04742469691106098;0.0677232533073407
0.03438187637527506;0.04810695789384569;0.06823687963107115
0.037820064012802565;0.04879618811524198;0.06875280239021662
0.04125825165033007;0.04949240858986786;0.06927101577899655
0.044696439287857576;0.050195639504500206;0.06979151381135024
0.04813462692538508;0.0509059002041248;0.07031429032042893
0.051572814562912586;0.05162320917806501;0.07083933895810614
0.05501100220044009;0.05234758404619651;0.07136665319450584
0.0584491898379676;0.053079041545254585;0.07189622631754938
0.0618873774754951;0.05381759751523634;0.07242805143252058
0.06532556511302261;0.05456326688590901;0.07296212146164992
0.06876375275055012;0.05531606366342276;0.07349842914371718
0.07220194038807762;0.05607600091704385;0.0740369670336736
0.07564012802560513;0.05684309076600321;0.07457772750228261
0.07907831566313263;0.057617344366474844;0.07512070273578052
0.08251650330066014;0.05839877189868464;0.07566588473555619
0.08595469093818764;0.059187382554159305;0.07621326531785089
0.08939287857571515;0.05998318452311726;0.07676283611347721
0.09283106621324265;0.06078618498201155;0.07731458856755846
0.09626925385077016;0.06159639008122725;0.07786851393928818
0.09970744148829766;0.06241380493294265;0.07842460330170924
0.10314562912582517;0.06323843359915561;0.07898284754151416
0.10658381676335267;0.06407027907988591;0.07954323735886523
0.11002200440088018;0.06490934330155472;0.0801057632672354
0.1134601920384077;0.06575562710555377;0.08067041559327026
0.1168983796759352;0.06660913023699888;0.08123718447667004
0.1203365673134627;0.06746985133368782;0.08180605987009393
0.1237747549509902;0.06833778791525508;0.08237703153908409
0.1272129425885177;0.06921293637253868;0.08295008906201179
0.13065113022604521;0.07009529195716035;0.08352522183004457
0.13408931786357273;0.07098484877132509;0.08410241904713488
0.13752750550110024;0.07188159975784623;0.08468166973003033
0.14096569313862772;0.07278553669040315;0.08526296270830543
0.14440388077615524;0.07369665016403411;0.08584628662441521
0.14784206841368275;0.07461492958587199;0.0864316299337709
0.15128025605121026;0.07554036316612874;0.08701898090483705
0.15471844368873774;0.0764729379093309;0.08760832761925097
0.15815663132626526;0.07741263960581546;0.08819965797196475
0.16159481896379277;0.07835945282348958;0.08879295967140849
0.16503300660132028;0.0793133608998572;0.08938822023967657
0.1684711942388478;0.08027434593432418;0.0899854270127362
0.17190938187637528;0.081242388780777;0.09058456714065832
0.1753475695139028;0.08221746904045198;0.09118562758787079
0.1787857571514303;0.08319956505508842;0.0917885951334346
0.18222394478895781;0.08418865390037981;0.09239345637134236
0.1856621324264853;0.08518471137972304;0.09300019771083973
0.1891003200640128;0.08618771201826998;0.09360880537676941
0.19253850770154032;0.08719762905728905;0.09421926540993814
0.19597669533906784;0.08821443444883983;0.09483156366750653
0.19941488297659532;0.08923809885076327;0.09544568582340174
0.20285307061412283;0.09026859162199513;0.09606161736875284
0.20629125825165034;0.09130588081820651;0.09667934361234995
0.20972944588917786;0.09234993318777032;0.09729884968112548
0.21316763352670534;0.09340071416806808;0.09792012052065921
0.21660582116423285;0.09445818788212842;0.09854314089570562
0.22004400880176037;0.09552231713561242;0.0991678953907453
0.22348219643928788;0.09659306341414255;0.0997943684105588
0.2269203840768154;0.0976703868809804;0.1004225441808238
0.23035857171434287;0.09875424637505974;0.10105240674873534
0.2337967593518704;0.09984459940937179;0.10168393998364966
0.2372349469893979;0.10094140216971359;0.10231712757775059
0.2406731346269254;0.10204460951379718;0.10295195304673944
0.2441113222644529;0.10315417497072443;0.10358839973054816
0.2475495099019804;0.1042700507408297;0.10422645079407539
0.2509876975395079;0.10539218769589588;0.10486608922794588
0.2544258851770354;0.10652053537973875;0.10550729784929265
0.2578640728145629;0.10765504200917694;0.1061500593025631
0.26130226045209043;0.10879565447537018;0.10679435606034711
0.26474044808961794;0.10994231834554365;0.10744017042422899
0.26817863572714545;0.11109497786509448;0.1080874845256622
0.27161682336467297;0.11225357596008355;0.10873628032686738
0.2750550110022005;0.11341805424011016;0.10938653962175238
0.278493198639728;0.11458835300157955;0.11003824403685644
0.28193138627725545;0.11576441123135413;0.11069137503231645
0.28536957391478296;0.1169461666108016;0.11134591390285621
0.28880776155231047;0.11813355552022989;0.11200184177879875
0.292245949189838;0.11932651304371793;0.11265913962710042
0.2956841368273655;0.12052497297433706;0.11331778825240903
0.299122324464893;0.12172886781976991;0.11397776829814336
0.3025605121024205;0.12293812880832387;0.11463906024759558
0.30599869973994803;0.12415268589533583;0.11530164442505622
0.3094368873774755;0.12537246776997707;0.11596550099696164
0.312875075015003;0.12659740186245022;0.11663060997306296
0.3163132626525305;0.1278274143515833;0.11729695120761799
0.319751450290058;0.12906243017281926;0.11796450440060485
0.32318963792758554;0.13030237302659606;0.11863324909895792
0.32662782556511305;0.1315471653871252;0.1193031646978248
0.33006601320264056;0.1327967285115607;0.11997423044184642
0.3335042008401681;0.1340509824495619;0.12064642542645757
0.3369423884776956;0.13530984605324423;0.12131972859920932
0.34038057611522304;0.13657323698752363;0.12199411876111355
0.34381876375275056;0.13784107174084406;0.12266957456800803
0.34725695139027807;0.13911326563629772;0.12334607453194285
0.3506951390278056;0.14038973284312464;0.12402359702258825
0.3541333266653331;0.141670386388596;0.12470212026866287
0.3575715143028606;0.1429551381702828;0.12538162235938333
0.3610097019403881;0.14424389896869386;0.1260620812459344
0.36444788957791563;0.1455365784602989;0.1267434747429589
0.3678860772154431;0.14683308523091898;0.1274257805300695
0.3713242648529706;0.14813332678948699;0.12810897615337896
0.3747624524904981;0.14943720958218146;0.1287930390270518
0.3782006401280256;0.15074463900691581;0.12947794643487542
0.38163882776555313;0.15205551942819617;0.1301636755318509
0.38507701540308065;0.15336975419233154;0.13085020334580325
0.38851520304060816;0.1546872456430007;0.13153750677901097
0.39195339067813567;0.15600789513716617;0.13222556260985613
0.3953915783156632;0.15733160306133862;0.13291434749449135
0.39882976595319064;0.15865826884817627;0.13360383796852743
0.40226795359071815;0.15998779099342944;0.13429401044873873
0.40570614122824566;0.1613200670732128;0.13498484123478746
0.4091443288657732;0.16265499376160944;0.13567630651096627
0.4125825165033007;0.16399246684859337;0.13636838234795856
0.4160207041408282;0.16533238125827832;0.13706104470461716
0.4194588917783557;0.16667463106747613;0.13775426942976063
0.4228970794158832;0.16801910952456364;0.13844803226398655
0.4263352670534107;0.1693657090686525;0.13914230884150292
0.4297734546909382;0.17071432134905815;0.13983707469197637
0.4332116423284657;0.17206483724506288;0.14053230524239643
0.4366498299659932;0.17341714688595763;0.14122797581895766
0.44008801760352073;0.17477113967137395;0.14192406164895738
0.44352620524104824;0.17612670429188368;0.1426205378627103
0.44696439287857576;0.1774837287498684;0.14331737949547765
0.45040258051610327;0.1788421003806523;0.14401456148941436
0.4538407681536308;0.1802017058738874;0.14471205869552914
0.45727895579115824;0.18156243129519173;0.14540984587566191
0.46071714342868575;0.1829241621080264;0.14610789770447516
0.46415533106621326;0.1842867831958083;0.14680618877146023
0.4675935187037408;0.18565017888425414;0.14750469358295817
0.4710317063412683;0.18701423296394024;0.14820338656419493
0.4744698939787958;0.18837882871308403;0.14890224206133063
0.4779080816163233;0.18974384892052568;0.14960123434352182
0.4813462692538508;0.1911091759089125;0.150300337604999
0.4847844568913783;0.19247469155807853;0.15099952596715485
0.4882226445289058;0.19384027732859968;0.1516987734806477
0.4916608321664333;0.19520581428553602;0.15239805412751625
0.4950990198039608;0.19657118312233804;0.15309734182330767
0.49853720744148833;0.19793626418491403;0.15379661041921672
0.5019753950790158;0.19930093749585176;0.15449583370423803
0.5054135827165434;0.20066508277878872;0.15519498540732893
0.5088517703540708;0.2020285794829125;0.15589403919958408
0.5122899579915984;0.20339130680759934;0.15659296869642086
0.5157281456291258;0.2047531437271651;0.15729174745977603
0.5191663332666534;0.2061139690157371;0.15799034900031192
0.5226045209041809;0.20747366127222455;0.15868874677963357
0.5260427085417084;0.20883209894538576;0.15938691421251538
0.5294808961792359;0.2101891603589887;0.16008482466913765
0.5329190838167633;0.2115447237370399;0.16078245147733164
0.5363572714542909;0.2128986672290975;0.16147976792483426
0.5397954590918184;0.21425086893563267;0.16217674726155148
0.5432336467293459;0.2156012069334555;0.1628733627018295
0.5466718343668734;0.2169495593011781;0.16356958742673464
0.550110022004401;0.21829580414472022;0.16426539458634046
0.5535482096419284;0.21963981962283666;0.16496075730202236
0.556986397279456;0.2209814839726646;0.16565564866876017
0.5604245849169834;0.2223206755352861;0.16635004175744592
0.5638627725545109;0.22365727278128236;0.1670439096171996
0.5673009601920385;0.22499115433628947;0.1677372252776907
0.5707391478295659;0.22632219900653452;0.16842996175146496
0.5741773354670935;0.2276502858043445;0.1691220920362777
0.5776155231046209;0.22897529397362304;0.16981358911743122
0.5810537107421485;0.2302971030152884;0.17050442597011875
0.584491898379676;0.23161559271265128;0.17119457556177065
0.5879300860172034;0.2329306431567441;0.17188401085440758
0.591368273654731;0.2342421347715722;0.17257270480699535
0.5948064612922584;0.23554994833929174;0.17326063037780443
0.598244648929786;0.23685396502530195;0.17394776052677316
0.6016828365673135;0.2381540664032453;0.17463406821787242
0.605121024204841;0.23945013447989283;0.17531952642147475
0.6085592118423685;0.24074205171993865;0.17600410811672423
0.6119973994798961;0.24202970107065383;0.17668778629390963
0.6154355871174235;0.24331296598642413;0.1773705339568382
0.618873774754951;0.24459173045314658;0.17805232412521094
0.6223119623924785;0.2458658790124841;0.17873312983699977
0.625750150030006;0.24713529678596374;0.17941292415082408
0.6291883376675336;0.2483998694989131;0.18009168014832838
0.632626525305061;0.24965948350422681;0.18076937093655945
0.6360647129425886;0.2509140258059668;0.1814459696503441
0.639502900580116;0.25216338408275824;0.1821214494546647
0.6429410882176436;0.2534074467110046;0.1827957835470357
0.6463792758551711;0.25464610278789795;0.1834689451598765
0.6498174634926985;0.25587924215422714;0.18414090756288434
0.6532556511302261;0.25710675541695405;0.18481164406540507
0.6566938387677536;0.2583285339715856;0.18548112801880068
0.6601320264052811;0.25954447002429565;0.1861493328188147
0.6635702140428086;0.2607544566138246;0.18681623190793473
0.6670084016803361;0.2619583876331245;0.18748179877775148
0.6704465893178636;0.26315615785075236;0.18814600697131392
0.6738847769553912;0.2643476629320037;0.18880883008548077
0.6773229645929186;0.26553279945978625;0.18947024177326754
0.6807611522304461;0.266711464955206;0.19013021574618894
0.6841993398679737;0.2678835578978903;0.19078872577659572
0.6876375275055011;0.26904897774601505;0.1914457457000079
0.6910757151430287;0.27020762495603945;0.19210124941743978
0.6945139027805561;0.2713594010021441;0.19275521089772152
0.6979520904180837;0.27250420839536404;0.19340760417981234
0.7013902780556112;0.27364195070241576;0.19405840337510905
0.7048284656931386;0.2747725325641951;0.19470758266974564
0.7082666533306662;0.2758958597139672;0.1953551163268875
0.7117048409681936;0.2770118389952182;0.19600097868901634
0.7151430286057212;0.2781203783791837;0.19664514418020843
0.7185812162432487;0.2792213869820274;0.19728758730840423
0.7220194038807762;0.2803147750816889;0.1979282826676693
0.7254575915183037;0.2814004541343735;0.19856720494044658
0.7288957791558313;0.28247833679069456;0.19920432889979914
0.7323339667933587;0.2835483369114561;0.19983962941164396
0.7357721544308862;0.2846103695830751;0.20047308143697584
0.7392103420684137;0.2856643511326377;0.20110466003408037
0.7426485297059412;0.28671019914258367;0.20173434036073798
0.7460867173434688;0.2877478324650167;0.20236209767641536
0.7495249049809962;0.28877717123564034;0.20298790734444835
0.7529630926185238;0.2897981368873088;0.20361174483421046
0.7564012802560512;0.2908106521631919;0.20423358572327305
0.7598394678935788;0.29181464112956007;0.20485340569955002
0.7632776555311063;0.292810029188163;0.20547118056343416
0.7667158431686337;0.2937967430882322;0.20608688622991733
0.7701540308061613;0.2947747109380709;0.2067004987307007
0.7735922184436888;0.2957438622162572;0.20731199421628982
0.7770304060812163;0.2967041277824297;0.20792134895807823
0.7804685937187438;0.2976554398876931;0.2085285393504146
0.7839067813562713;0.29859773218458985;0.20913354191266026
0.7873449689937988;0.2995309397366846;0.2097363332912274
0.7907831566313264;0.3004549990277262;0.21033689026160685
0.7942213442688538;0.30136984797041044;0.21093518973037903
0.7976595319063813;0.30227542591471923;0.21153120873721062
0.8010977195439088;0.3031716736558486;0.21212492445683517
0.8045359071814363;0.30405853344172445;0.21271631420101922
0.8079740948189639;0.3049359489801073;0.21330535542051143
0.8114122824564913;0.3058038654452644;0.21389202570697677
0.8148504700940189;0.3066622294842474;0.2144763027949128
0.8182886577315464;0.30751098922272924;0.21505816456355173
0.8217268453690738;0.3083500942704473;0.21563758903874236
0.8251650330066014;0.30917949572620895;0.21621455439481813
0.8286032206441288;0.30999914618249297;0.21678903895644575
0.8320414082816564;0.31080899972963133;0.21736102120045686
0.8354795959191839;0.31160901195957047;0.2179304797576621
0.8389177835567114;0.3123991399692229;0.2184973934146467
0.8423559711942389;0.3131793423634002;0.21906174111554785
0.8457941588317665;0.31394957925733774;0.2196235019638137
0.8492323464692939;0.31470981227879824;0.2201826552239438
0.8526705341068214;0.3154600045697761;0.22073918032320955
0.8561087217443489;0.3162001207877783;0.22129305685335704
0.8595469093818764;0.3169301271067127;0.22184426457228876
0.862985097019404;0.3176499912173583;0.22239278340572738
0.8664232846569314;0.31835968232743705;0.2229385934488582
0.869861472294459;0.3190591711612868;0.22348167496795274
0.8732996599319864;0.3197484299591256;0.22402200840197076
0.876737847569514;0.3204274324759257;0.2245595743641438
0.8801760352070415;0.32109615397989855;0.22509435364353633
0.8836142228445689;0.3217545712505689;0.22562632720658632
0.8870524104820965;0.3224026625764856;0.22615547619862633
0.8904905981196239;0.3230404077525257;0.22668178194538136
0.8939287857571515;0.3236677880768279;0.22720522595444656
0.897366973394679;0.32428478634733865;0.2277257899167434
0.9008051610322065;0.3248913868579898;0.22824345570795346
0.904243348669734;0.3254875753945004;0.22875820538993136
0.9076815363072616;0.32607333922980725;0.22927002121209436
0.911119723944789;0.3266486671191361;0.22977888561279147
0.9145579115823165;0.327213549294706;0.23028478122064813
0.917996099219844;0.3277679774600838;0.23078769085589063
0.9214342868573715;0.32831194478417897;0.23128759753164604
0.9248724744948991;0.32884544589489384;0.23178448445522076
0.9283106621324265;0.32936847687242976;0.23227833502935494
0.9317488497699541;0.32988103524225065;0.23276913285345496
0.9351870374074815;0.3303831199677183;0.23325686172480203
0.9386252250450091;0.33087473144238705;0.2337415056397378
0.9420634126825366;0.33135587148198564;0.23422304879482653
0.945501600320064;0.33182654331606937;0.2347014755879934
0.9489397879575916;0.33228675157935467;0.2351767706196397
0.952377975595119;0.3327365023027582;0.23564891869373464
0.9558161632326466;0.33317580290411175;0.23611790481888129
0.9592543508701741;0.3336046621785912;0.23658371420936114
0.9626925385077016;0.3340230902888408;0.2370463322861534
0.9661307261452291;0.3344310987548223;0.2375057446779295
0.9695689137827566;0.3348287004433584;0.23796193722202494
0.9730071014202841;0.3352159095574236;0.23841489596538548
0.9764452890578116;0.33559274162514025;0.23886460716548974
0.9798834766953392;0.3359592134885205;0.23931105729124708
0.9833216643328666;0.33631534329194773;0.23975423302387056
0.9867598519703942;0.3366611504703931;0.2401941212577266
0.9901980396079216;0.33699665573738813;0.2406307091011585
0.9936362272454492;0.3373218810727649;0.2410639838772855
0.9970744148829767;0.33763684971013086;0.2414939331247787
1.0005126025205042;0.3379415861241431;0.24192054459860954
1.0039507901580316;0.33823611601753434;0.24234380627077645
1.0073889777955591;0.3385204663079372;0.24276370633100336
1.0108271654330867;0.3387946651144761;0.24318023318741602
1.0142653530706143;0.33905874174416967;0.24359337546719287
1.0177035407081416;0.339312726678118;0.24400312201718852
1.0211417283456692;0.33955665155751114;0.24440946190453616
1.0245799159831968;0.3397905491694298;0.24481238441722186
1.028018103620724;0.34001445343247755;0.2452118790646352
1.0314562912582517;0.3402283993822334;0.24560793557809496
1.0348944788957792;0.3404324231565335;0.24600054391134843
1.0383326665333068;0.34062656198059055;0.2463896942410485
1.0417708541708341;0.34081085415195034;0.2467753769672022
1.0452090418083617;0.340985339025308;0.24715758271359714
1.0486472294458893;0.3411500569971709;0.2475363023282011
1.0520854170834169;0.34130504949038304;0.247911526883538
1.0555236047209442;0.3414503589385274;0.24828324767703774
1.0589617923584718;0.34158602877018585;0.24865145623136226
1.0623999799959993;0.34171210339309005;0.24901614429470512
1.0658381676335267;0.34182862817816523;0.2493773038410685
1.0692763552710542;0.34193564944344623;0.24973492707051276
1.0727145429085818;0.34203321443791523;0.2500890064093835
1.0761527305461094;0.34212137132522363;0.2504395345105126
1.0795909181836367;0.34220016916734647;0.2507865042533944
1.0830291058211643;0.34226965790813413;0.251129908744339
1.0864672934586919;0.34232988835680167;0.2514697413165984
1.0899054810962192;0.34238091217133804;0.2518059955304703
1.0933436687337468;0.34242278184185887;0.25213866517337635
1.0967818563712743;0.3424555506738943;0.2524677442599162
1.100220044008802;0.34247927277162393;0.25279322703189827
1.1036582316463293;0.3424940030210736;0.253115107958344
1.1070964192838568;0.34249979707325795;0.25343338173547064
1.1105346069213844;0.34249671132729886;0.2537480432866481
1.113972794558912;0.3424848029135073;0.2540590877623327
1.1174109821964393;0.3424641296764491;0.2543665105399773
1.1208491698339669;0.34243475015797764;0.25467030722391626
1.1242873574714944;0.3423967235802742;0.2549704736452287
1.1277255451090218;0.3423501098288624;0.25526700586157713
1.1311637327465494;0.34229496943563464;0.2555599001570219
1.134601920384077;0.34223136356187195;0.25584915304181444
1.1380401080216045;0.3421593539812784;0.2561347612521653
1.1414782956591318;0.3420790030630286;0.25641672174998914
1.1449164832966594;0.34199037375483854;0.25669503172262936
